2024-11-20 22:16:04,263 - DEBUG - Starting polynomial regression for BPM data
2024-11-20 22:16:04,266 - DEBUG - Processing BPM segment from 0 to 11173: [60.0, 48.0, 60.0, 54.0, 60.0, 54.0, 60.0, 48.0, 60.0, 54.0, 66.0, 60.0, 54.0, 54.0, 54.0, 60.0, 54.0, 54.0, 54.0, 60.0, 60.0, 60.0, 54.0, 60.0, 54.0, 66.0, 60.0, 60.0, 60.0, 60.0, 54.0, 60.0, 54.0, 54.0, 60.0, 60.0, 60.0, 60.0, 48.0, 60.0, 54.0, 60.0, 54.0, 60.0, 48.0, 54.0, 54.0, 60.0, 66.0, 54.0, 54.0, 48.0, 54.0, 48.0, 54.0, 54.0, 60.0, 54.0, 60.0, 48.0, 48.0, 48.0, 48.0, 60.0, 54.0, 54.0, 54.0, 54.0, 54.0, 54.0, 48.0, 54.0, 60.0, 54.0, 54.0, 54.0, 60.0, 60.0, 48.0, 48.0, 42.0, 54.0, 54.0, 48.0, 42.0, 48.0, 48.0, 60.0, 54.0, 54.0, 48.0, 60.0, 48.0, 42.0, 48.0, 48.0, 48.0, 48.0, 54.0, 48.0, 54.0, 48.0, 42.0, 42.0, 42.0, 48.0, 48.0, 48.0, 48.0, 48.0, 48.0, 42.0, 54.0, 54.0, 48.0, 42.0, 42.0, 48.0, 42.0, 42.0, 48.0, 54.0, 54.0, 42.0, 42.0, 48.0, 48.0, 54.0, 54.0, 42.0, 42.0, 54.0, 48.0, 54.0, 60.0, 66.0, 60.0, 66.0, 60.0, 60.0, 60.0, 54.0, 60.0, 60.0, 60.0, 54.0, 60.0, 60.0, 60.0, 60.0, 66.0, 60.0, 60.0, 66.0, 60.0, 60.0, 60.0, 60.0, 66.0, 66.0, 72.0, 60.0, 60.0, 60.0, 60.0, 54.0, 54.0, 60.0, 72.0, 60.0, 72.0, 60.0, 72.0, 84.0, 72.0, 60.0, 60.0, 72.0, 66.0, 60.0, 54.0, 60.0, 60.0, 66.0, 60.0, 54.0, 60.0, 60.0, 54.0, 54.0, 60.0, 54.0, 54.0, 54.0, 54.0, 54.0, 54.0, 54.0, 54.0, 54.0, 54.0, 54.0, 54.0, 54.0, 60.0, 54.0, 60.0, 54.0, 48.0, 48.0, 48.0, 54.0, 66.0, 54.0, 60.0, 48.0, 54.0, 54.0, 54.0, 54.0, 66.0, 54.0, 54.0, 54.0, 54.0, 54.0, 60.0, 54.0, 60.0, 54.0, 60.0, 54.0, 60.0, 54.0, 60.0, 60.0, 54.0, 54.0, 60.0, 54.0, 60.0, 54.0, 48.0, 60.0, 54.0, 54.0, 48.0, 54.0, 54.0, 48.0, 60.0, 54.0, 60.0, 54.0, 54.0, 48.0, 48.0, 54.0, 54.0, 54.0, 54.0, 48.0, 54.0, 48.0, 48.0, 54.0, 48.0, 48.0, 60.0, 54.0, 54.0, 48.0, 48.0, 48.0, 60.0, 60.0, 60.0, 60.0, 54.0, 48.0, 54.0, 60.0, 54.0, 54.0, 54.0, 48.0, 54.0, 54.0, 54.0, 48.0, 60.0, 54.0, 54.0, 54.0, 54.0, 48.0, 54.0, 60.0, 60.0, 60.0, 54.0, 48.0, 54.0, 60.0, 54.0, 54.0, 54.0, 60.0, 54.0, 54.0, 54.0, 60.0, 48.0, 54.0, 48.0, 54.0, 48.0, 48.0, 54.0, 54.0, 54.0, 60.0, 54.0, 54.0, 54.0, 54.0, 54.0, 60.0, 54.0, 48.0, 54.0, 48.0, 54.0, 54.0, 60.0, 60.0, 48.0, 54.0, 48.0, 48.0, 54.0, 48.0, 54.0, 54.0, 54.0, 54.0, 60.0, 54.0, 54.0, 54.0, 54.0, 54.0, 54.0, 48.0, 54.0, 54.0, 54.0, 48.0, 54.0, 54.0, 60.0, 48.0, 54.0, 48.0, 48.0, 60.0, 48.0, 54.0, 54.0, 54.0, 54.0, 54.0, 48.0, 54.0, 60.0, 54.0, 54.0, 54.0, 54.0, 48.0, 54.0, 54.0, 54.0, 54.0, 66.0, 54.0, 54.0, 54.0, 54.0, 54.0, 54.0, 60.0, 54.0, 48.0, 54.0, 48.0, 54.0, 48.0, 48.0, 54.0, 54.0, 54.0, 54.0, 54.0, 54.0, 48.0, 54.0, 54.0, 54.0, 54.0, 54.0, 54.0, 60.0, 66.0, 60.0, 60.0, 48.0, 60.0, 60.0, 54.0, 48.0, 54.0, 48.0, 54.0, 54.0, 54.0, 54.0, 54.0, 54.0, 60.0, 60.0, 54.0, 60.0, 60.0, 54.0, 60.0, 54.0, 66.0, 72.0, 72.0, 66.0, 78.0, 66.0, 60.0, 60.0, 54.0, 60.0, 60.0, 60.0, 60.0, 54.0, 60.0, 54.0, 54.0, 54.0, 54.0, 54.0, 54.0, 48.0, 54.0, 54.0, 60.0, 54.0, 60.0, 66.0, 54.0, 66.0, 60.0, 60.0, 54.0, 54.0, 60.0, 54.0, 54.0, 60.0, 54.0, 54.0, 60.0, 66.0, 54.0, 66.0, 60.0, 54.0, 54.0, 60.0, 60.0, 60.0, 60.0, 60.0, 60.0, 60.0, 60.0, 54.0, 54.0, 60.0, 54.0, 54.0, 54.0, 60.0, 60.0, 60.0, 54.0, 60.0, 54.0, 60.0, 48.0, 54.0, 60.0, 72.0, 60.0, 54.0, 54.0, 54.0, 54.0, 54.0, 54.0, 60.0, 60.0, 60.0, 60.0, 66.0, 54.0, 60.0, 54.0, 54.0, 66.0, 72.0, 72.0, 72.0, 66.0, 72.0, 72.0, 72.0, 60.0, 72.0, 60.0, 60.0, 66.0, 66.0, 66.0, 72.0, 72.0, 66.0, 66.0, 72.0, 66.0, 66.0, 66.0, 66.0, 72.0, 60.0, 60.0, 66.0, 60.0, 60.0, 54.0, 48.0, 60.0, 60.0, 60.0, 60.0, 54.0, 54.0, 54.0, 54.0, 60.0, 48.0, 54.0, 60.0, 54.0, 60.0, 66.0, 66.0, 54.0, 48.0, 48.0, 48.0, 48.0, 54.0, 66.0, 66.0, 60.0, 48.0, 54.0, 54.0, 54.0, 60.0, 60.0, 54.0, 48.0, 54.0, 48.0, 54.0, 48.0, 54.0, 54.0, 54.0, 66.0, 78.0, 72.0, 60.0, 60.0, 60.0, 60.0, 54.0, 54.0, 54.0, 60.0, 60.0, 60.0, 66.0, 60.0, 66.0, 66.0, 60.0, 66.0, 60.0, 72.0, 60.0, 54.0, 60.0, 60.0, 66.0, 60.0, 60.0, 60.0, 66.0, 60.0, 66.0, 66.0, 66.0, 66.0, 60.0, 60.0, 66.0, 66.0, 66.0, 60.0, 66.0, 66.0, 66.0, 66.0, 60.0, 66.0, 66.0, 60.0, 60.0, 54.0, 60.0, 60.0, 60.0, 66.0, 66.0, 66.0, 60.0, 60.0, 60.0, 60.0, 60.0, 66.0, 66.0, 66.0, 60.0, 54.0, 54.0, 60.0, 60.0, 54.0, 60.0, 60.0, 60.0, 54.0, 54.0, 60.0, 66.0, 60.0, 54.0, 60.0, 54.0, 66.0, 54.0, 54.0, 66.0, 66.0, 78.0, 78.0, 72.0, 66.0, 66.0, 60.0, 66.0, 66.0, 66.0, 60.0, 72.0, 60.0, 60.0, 66.0, 72.0, 72.0, 60.0, 60.0, 66.0, 72.0, 60.0, 54.0, 54.0, 54.0, 54.0, 54.0, 54.0, 54.0, 60.0, 66.0, 60.0, 54.0, 54.0, 54.0, 54.0, 60.0, 54.0, 60.0, 54.0, 66.0, 66.0, 60.0, 66.0, 60.0, 60.0, 60.0, 54.0, 54.0, 60.0, 60.0, 60.0, 60.0, 66.0, 60.0, 60.0, 60.0, 60.0, 66.0, 60.0, 54.0, 60.0, 60.0, 60.0, 54.0, 60.0, 60.0, 54.0, 60.0, 66.0, 66.0, 60.0, 60.0, 66.0, 60.0, 66.0, 66.0, 60.0, 72.0, 60.0, 66.0, 54.0, 66.0, 66.0, 60.0, 66.0, 66.0, 60.0, 54.0, 60.0, 54.0, 54.0, 54.0, 54.0, 60.0, 48.0, 54.0, 54.0, 60.0, 60.0, 54.0, 60.0, 54.0, 54.0, 60.0, 48.0, 54.0, 60.0, 48.0, 60.0, 60.0, 54.0, 48.0, 60.0, 54.0, 60.0, 60.0, 60.0, 66.0, 54.0, 48.0, 54.0, 60.0, 60.0, 54.0, 48.0, 54.0, 60.0, 54.0, 54.0, 60.0, 60.0, 60.0, 60.0, 54.0, 60.0, 54.0, 60.0, 54.0, 60.0, 54.0, 66.0, 66.0, 54.0, 54.0, 54.0, 54.0, 54.0, 66.0, 66.0, 60.0, 60.0, 48.0, 54.0, 54.0, 54.0, 60.0, 60.0, 60.0, 66.0, 60.0, 66.0, 66.0, 72.0, 60.0, 60.0, 60.0, 66.0, 60.0, 54.0, 54.0, 60.0, 60.0, 60.0, 54.0, 60.0, 66.0, 66.0, 66.0, 60.0, 60.0, 54.0, 54.0, 60.0, 60.0, 54.0, 48.0, 60.0, 60.0, 66.0, 60.0, 54.0, 60.0, 66.0, 60.0, 54.0, 48.0, 54.0, 54.0, 60.0, 54.0, 54.0, 54.0, 54.0, 54.0, 54.0, 54.0, 66.0, 60.0, 60.0, 60.0, 54.0, 48.0, 54.0, 60.0, 54.0, 54.0, 54.0, 54.0, 54.0, 60.0, 60.0, 54.0, 60.0, 54.0, 60.0, 54.0, 54.0, 48.0, 54.0, 54.0, 48.0, 60.0, 60.0, 60.0, 60.0, 60.0, 60.0, 60.0, 48.0, 54.0, 54.0, 66.0, 60.0, 60.0, 60.0, 66.0, 78.0, 66.0, 66.0, 60.0, 60.0, 66.0, 72.0, 72.0, 60.0, 60.0, 60.0, 72.0, 60.0, 66.0, 60.0, 60.0, 66.0, 60.0, 66.0, 66.0, 60.0, 72.0, 60.0, 66.0, 60.0, 60.0, 60.0, 66.0, 60.0, 72.0, 60.0, 54.0, 54.0, 48.0, 48.0, 54.0, 54.0, 54.0, 54.0, 60.0, 54.0, 54.0, 60.0, 60.0, 54.0, 54.0, 60.0, 54.0, 60.0, 60.0, 54.0, 66.0, 54.0, 54.0, 54.0, 54.0, 54.0, 60.0, 54.0, 66.0, 60.0, 60.0, 60.0, 60.0, 60.0, 60.0, 54.0, 60.0, 60.0, 60.0, 66.0, 54.0, 60.0, 60.0, 66.0, 60.0, 54.0, 54.0, 60.0, 66.0, 72.0, 60.0, 66.0, 60.0, 66.0, 66.0, 72.0, 66.0, 60.0, 66.0, 72.0, 66.0, 72.0, 66.0, 72.0, 66.0, 72.0, 72.0, 72.0, 78.0, 72.0, 66.0, 66.0, 72.0, 66.0, 60.0, 54.0, 60.0, 66.0, 60.0, 60.0, 60.0, 60.0, 60.0, 60.0, 60.0, 54.0, 54.0, 54.0, 54.0, 60.0, 54.0, 54.0, 60.0, 60.0, 60.0, 60.0, 54.0, 60.0, 54.0, 60.0, 60.0, 54.0, 60.0, 54.0, 60.0, 60.0, 60.0, 60.0, 60.0, 60.0, 60.0, 54.0, 60.0, 60.0, 60.0, 60.0, 60.0, 66.0, 60.0, 60.0, 66.0, 66.0, 60.0, 66.0, 72.0, 78.0, 66.0, 66.0, 60.0, 66.0, 66.0, 66.0, 60.0, 60.0, 60.0, 60.0, 66.0, 60.0, 60.0, 66.0, 72.0, 72.0, 72.0, 60.0, 72.0, 60.0, 48.0, 60.0, 72.0, 78.0, 78.0, 66.0, 66.0, 66.0, 66.0, 72.0, 72.0, 66.0, 66.0, 72.0, 72.0, 72.0, 66.0, 66.0, 66.0, 54.0, 60.0, 66.0, 54.0, 66.0, 60.0, 54.0, 60.0, 66.0, 60.0, 72.0, 72.0, 66.0, 66.0, 54.0, 60.0, 60.0, 60.0, 54.0, 60.0, 54.0, 54.0, 54.0, 54.0, 60.0, 60.0, 60.0, 66.0, 60.0, 60.0, 60.0, 54.0, 54.0, 66.0, 66.0, 60.0, 60.0, 66.0, 78.0, 72.0, 66.0, 54.0, 54.0, 54.0, 60.0, 60.0, 60.0, 60.0, 54.0, 54.0, 60.0, 60.0, 54.0, 54.0, 54.0, 54.0, 60.0, 72.0, 66.0, 72.0, 60.0, 48.0, 48.0, 54.0, 66.0, 60.0, 60.0, 48.0, 54.0, 54.0, 60.0, 66.0, 60.0, 66.0, 66.0, 54.0, 54.0, 60.0, 66.0, 60.0, 54.0, 66.0, 66.0, 60.0, 60.0, 60.0, 60.0, 54.0, 54.0, 48.0, 60.0, 60.0, 54.0, 48.0, 60.0, 60.0, 66.0, 60.0, 54.0, 60.0, 60.0, 60.0, 60.0, 66.0, 60.0, 48.0, 48.0, 54.0, 54.0, 60.0, 60.0, 60.0, 54.0, 60.0, 54.0, 54.0, 60.0, 60.0, 54.0, 60.0, 60.0, 54.0, 54.0, 60.0, 60.0, 72.0, 72.0, 66.0, 78.0, 72.0, 66.0, 66.0, 66.0, 72.0, 72.0, 66.0, 60.0, 66.0, 60.0, 60.0, 60.0, 48.0, 54.0, 54.0, 66.0, 60.0, 60.0, 60.0, 54.0, 54.0, 54.0, 60.0, 54.0, 60.0, 54.0, 60.0, 60.0, 60.0, 66.0, 60.0, 60.0, 54.0, 66.0, 66.0, 66.0, 66.0, 78.0, 66.0, 60.0, 66.0, 66.0, 66.0, 72.0, 66.0, 72.0, 66.0, 72.0, 66.0, 72.0, 72.0, 72.0, 72.0, 66.0, 72.0, 72.0, 78.0, 78.0, 72.0, 72.0, 78.0, 78.0, 84.0, 72.0, 60.0, 54.0, 60.0, 54.0, 54.0, 54.0, 48.0, 54.0, 54.0, 48.0, 48.0, 60.0, 66.0, 60.0, 60.0, 66.0, 54.0, 48.0, 48.0, 48.0, 48.0, 60.0, 60.0, 48.0, 54.0, 54.0, 54.0, 54.0, 60.0, 60.0, 60.0, 66.0, 66.0, 60.0, 54.0, 54.0, 54.0, 66.0, 54.0, 60.0, 66.0, 60.0, 60.0, 54.0, 66.0, 60.0, 66.0, 54.0, 54.0, 54.0, 54.0, 66.0, 60.0, 54.0, 60.0, 54.0, 54.0, 66.0, 66.0, 60.0, 54.0, 66.0, 60.0, 48.0, 54.0, 60.0, 60.0, 66.0, 60.0, 60.0, 48.0, 48.0, 54.0, 60.0, 54.0, 48.0, 54.0, 48.0, 54.0, 54.0, 48.0, 54.0, 60.0, 48.0, 54.0, 54.0, 60.0, 54.0, 60.0, 54.0, 48.0, 48.0, 60.0, 54.0, 48.0, 60.0, 54.0, 60.0, 54.0, 54.0, 54.0, 54.0, 54.0, 54.0, 54.0, 60.0, 66.0, 60.0, 54.0, 48.0, 54.0, 54.0, 60.0, 48.0, 54.0, 54.0, 54.0, 54.0, 54.0, 54.0, 60.0, 54.0, 54.0, 54.0, 54.0, 60.0, 60.0, 54.0, 54.0, 54.0, 66.0, 66.0, 78.0, 66.0, 60.0, 66.0, 54.0, 54.0, 60.0, 60.0, 60.0, 66.0, 60.0, 72.0, 84.0, 72.0, 72.0, 72.0, 66.0, 54.0, 60.0, 66.0, 66.0, 66.0, 66.0, 60.0, 66.0, 60.0, 60.0, 54.0, 54.0, 48.0, 60.0, 60.0, 66.0, 60.0, 66.0, 66.0, 60.0, 72.0, 66.0, 66.0, 72.0, 78.0, 72.0, 60.0, 54.0, 54.0, 66.0, 60.0, 72.0, 60.0, 72.0, 72.0, 66.0, 60.0, 66.0, 66.0, 66.0, 66.0, 60.0, 72.0, 72.0, 72.0, 78.0, 66.0, 66.0, 66.0, 66.0, 66.0, 66.0, 72.0, 66.0, 66.0, 60.0, 72.0, 60.0, 66.0, 60.0, 54.0, 54.0, 54.0, 54.0, 66.0, 78.0, 66.0, 78.0, 90.0, 90.0, 78.0, 66.0, 60.0, 66.0, 60.0, 60.0, 54.0, 66.0, 54.0, 66.0, 54.0, 48.0, 42.0, 54.0, 54.0, 48.0, 60.0, 60.0, 72.0, 78.0, 66.0, 72.0, 60.0, 72.0, 72.0, 60.0, 54.0, 48.0, 54.0, 48.0, 54.0, 66.0, 54.0, 42.0, 54.0, 48.0, 54.0, 54.0, 48.0, 54.0, 54.0, 54.0, 54.0, 48.0, 54.0, 54.0, 42.0, 54.0, 48.0, 54.0, 54.0, 48.0, 54.0, 54.0, 54.0, 48.0, 48.0, 48.0, 48.0, 48.0, 54.0, 48.0, 48.0, 60.0, 72.0, 60.0, 54.0, 48.0, 54.0, 54.0, 48.0, 48.0, 54.0, 54.0, 48.0, 60.0, 60.0, 48.0, 48.0, 60.0, 72.0, 60.0, 72.0, 60.0, 54.0, 66.0, 60.0, 60.0, 54.0, 48.0, 48.0, 54.0, 60.0, 48.0, 60.0, 48.0, 54.0, 54.0, 48.0, 48.0, 60.0, 60.0, 60.0, 48.0, 48.0, 54.0, 48.0, 60.0, 48.0, 60.0, 72.0, 60.0, 72.0, 84.0, 90.0, 84.0, 78.0, 66.0, 54.0, 48.0, 48.0, 54.0, 66.0, 66.0, 60.0, 60.0, 60.0, 60.0, 60.0, 66.0, 66.0, 66.0, 54.0, 54.0, 54.0, 54.0, 54.0, 66.0, 54.0, 54.0, 66.0, 54.0, 60.0, 60.0, 66.0, 60.0, 60.0, 66.0, 60.0, 54.0, 54.0, 60.0, 54.0, 48.0, 48.0, 60.0, 54.0, 54.0, 60.0, 60.0, 60.0, 60.0, 54.0, 54.0, 60.0, 60.0, 60.0, 60.0, 60.0, 54.0, 60.0, 60.0, 54.0, 54.0, 60.0, 54.0, 60.0, 60.0, 54.0, 54.0, 60.0, 60.0, 54.0, 60.0, 60.0, 60.0, 60.0, 60.0, 60.0, 66.0, 60.0, 60.0, 60.0, 54.0, 54.0, 60.0, 60.0, 60.0, 60.0, 54.0, 60.0, 54.0, 54.0, 54.0, 60.0, 60.0, 66.0, 60.0, 60.0, 54.0, 54.0, 54.0, 60.0, 60.0, 60.0, 60.0, 60.0, 60.0, 60.0, 60.0, 60.0, 60.0, 60.0, 66.0, 60.0, 60.0, 54.0, 60.0, 54.0, 60.0, 60.0, 54.0, 66.0, 78.0, 66.0, 54.0, 48.0, 54.0, 54.0, 54.0, 48.0, 54.0, 54.0, 54.0, 54.0, 48.0, 48.0, 54.0, 54.0, 54.0, 60.0, 60.0, 54.0, 60.0, 54.0, 60.0, 60.0, 54.0, 48.0, 54.0, 60.0, 72.0, 84.0, 72.0, 60.0, 60.0, 48.0, 48.0, 54.0, 48.0, 60.0, 72.0, 66.0, 60.0, 66.0, 54.0, 60.0, 54.0, 60.0, 72.0, 60.0, 48.0, 54.0, 54.0, 54.0, 60.0, 60.0, 60.0, 60.0, 60.0, 60.0, 60.0, 66.0, 60.0, 48.0, 54.0, 54.0, 66.0, 54.0, 66.0, 54.0, 48.0, 54.0, 54.0, 48.0, 48.0, 60.0, 72.0, 60.0, 60.0, 60.0, 66.0, 66.0, 72.0, 60.0, 72.0, 66.0, 60.0, 54.0, 60.0, 66.0, 60.0, 60.0, 60.0, 60.0, 60.0, 60.0, 48.0, 48.0, 54.0, 54.0, 48.0, 48.0, 42.0, 48.0, 48.0, 54.0, 66.0, 60.0, 54.0, 54.0, 60.0, 72.0, 60.0, 60.0, 66.0, 60.0, 60.0, 54.0, 66.0, 66.0, 60.0, 60.0, 48.0, 48.0, 48.0, 48.0, 54.0, 66.0, 66.0, 60.0, 54.0, 54.0, 54.0, 54.0, 54.0, 66.0, 60.0, 54.0, 66.0, 60.0, 60.0, 54.0, 60.0, 60.0, 60.0, 54.0, 60.0, 60.0, 66.0, 72.0, 66.0, 78.0, 66.0, 72.0, 84.0, 72.0, 66.0, 60.0, 66.0, 60.0, 54.0, 60.0, 54.0, 54.0, 48.0, 54.0, 48.0, 54.0, 54.0, 54.0, 54.0, 48.0, 48.0, 54.0, 54.0, 54.0, 48.0, 54.0, 48.0, 60.0, 48.0, 60.0, 72.0, 66.0, 78.0, 66.0, 54.0, 54.0, 60.0, 60.0, 54.0, 48.0, 48.0, 54.0, 60.0, 66.0, 54.0, 54.0, 54.0, 60.0, 48.0, 48.0, 54.0, 48.0, 48.0, 54.0, 54.0, 54.0, 66.0, 60.0, 60.0, 48.0, 54.0, 54.0, 60.0, 60.0, 60.0, 48.0, 54.0, 54.0, 60.0, 54.0, 60.0, 54.0, 60.0, 48.0, 54.0, 60.0, 60.0, 54.0, 48.0, 54.0, 54.0, 54.0, 60.0, 54.0, 60.0, 54.0, 54.0, 60.0, 54.0, 48.0, 54.0, 60.0, 60.0, 60.0, 54.0, 54.0, 48.0, 54.0, 48.0, 54.0, 48.0, 60.0, 54.0, 54.0, 54.0, 48.0, 60.0, 54.0, 60.0, 54.0, 54.0, 54.0, 54.0, 60.0, 48.0, 60.0, 54.0, 54.0, 54.0, 48.0, 48.0, 54.0, 48.0, 60.0, 54.0, 54.0, 54.0, 54.0, 54.0, 54.0, 54.0, 54.0, 60.0, 54.0, 60.0, 48.0, 60.0, 72.0, 72.0, 66.0, 72.0, 72.0, 66.0, 66.0, 60.0, 66.0, 78.0, 66.0, 66.0, 66.0, 78.0, 66.0, 72.0, 66.0, 78.0, 84.0, 96.0, 84.0, 96.0, 90.0, 84.0, 90.0, 102.0, 90.0, 90.0, 90.0, 84.0, 84.0, 78.0, 90.0, 84.0, 96.0, 84.0, 72.0, 66.0, 60.0, 72.0, 60.0, 60.0, 60.0, 60.0, 54.0, 54.0, 54.0, 66.0, 78.0, 66.0, 54.0, 66.0, 72.0, 60.0, 60.0, 48.0, 54.0, 48.0, 60.0, 60.0, 54.0, 54.0, 54.0, 54.0, 48.0, 54.0, 54.0, 54.0, 60.0, 54.0, 54.0, 54.0, 60.0, 54.0, 54.0, 60.0, 60.0, 54.0, 60.0, 60.0, 66.0, 54.0, 54.0, 54.0, 54.0, 66.0, 54.0, 66.0, 60.0, 60.0, 66.0, 60.0, 48.0, 54.0, 48.0, 60.0, 54.0, 60.0, 66.0, 60.0, 60.0, 60.0, 54.0, 66.0, 54.0, 60.0, 54.0, 60.0, 60.0, 60.0, 60.0, 66.0, 54.0, 60.0, 60.0, 60.0, 66.0, 60.0, 60.0, 60.0, 60.0, 72.0, 60.0, 60.0, 60.0, 72.0, 60.0, 66.0, 60.0, 54.0, 60.0, 54.0, 60.0, 60.0, 66.0, 60.0, 60.0, 60.0, 60.0, 60.0, 66.0, 66.0, 54.0, 60.0, 66.0, 72.0, 66.0, 60.0, 66.0, 60.0, 72.0, 60.0, 54.0, 60.0, 60.0, 60.0, 54.0, 66.0, 60.0, 54.0, 66.0, 54.0, 54.0, 66.0, 66.0, 78.0, 66.0, 54.0, 60.0, 60.0, 60.0, 66.0, 66.0, 66.0, 60.0, 72.0, 60.0, 66.0, 72.0, 66.0, 72.0, 72.0, 66.0, 72.0, 66.0, 66.0, 66.0, 60.0, 60.0, 72.0, 60.0, 54.0, 66.0, 78.0, 72.0, 66.0, 66.0, 72.0, 72.0, 72.0, 78.0, 66.0, 66.0, 66.0, 72.0, 66.0, 66.0, 66.0, 66.0, 54.0, 66.0, 60.0, 72.0, 66.0, 66.0, 78.0, 90.0, 78.0, 66.0, 60.0, 66.0, 66.0, 72.0, 78.0, 90.0, 78.0, 66.0, 72.0, 60.0, 54.0, 66.0, 60.0, 60.0, 66.0, 60.0, 60.0, 54.0, 60.0, 72.0, 60.0, 54.0, 60.0, 54.0, 60.0, 60.0, 66.0, 60.0, 60.0, 60.0, 66.0, 66.0, 60.0, 60.0, 60.0, 66.0, 60.0, 66.0, 66.0, 60.0, 54.0, 60.0, 60.0, 60.0, 60.0, 60.0, 66.0, 60.0, 60.0, 60.0, 54.0, 54.0, 60.0, 54.0, 60.0, 60.0, 60.0, 48.0, 60.0, 54.0, 54.0, 54.0, 60.0, 60.0, 60.0, 60.0, 60.0, 60.0, 54.0, 54.0, 54.0, 60.0, 54.0, 54.0, 54.0, 48.0, 60.0, 48.0, 54.0, 54.0, 54.0, 54.0, 54.0, 54.0, 54.0, 54.0, 66.0, 60.0, 66.0, 54.0, 66.0, 66.0, 54.0, 54.0, 48.0, 54.0, 66.0, 54.0, 54.0, 60.0, 48.0, 54.0, 48.0, 48.0, 48.0, 54.0, 60.0, 54.0, 48.0, 54.0, 48.0, 60.0, 60.0, 60.0, 54.0, 66.0, 66.0, 72.0, 66.0, 54.0, 54.0, 66.0, 66.0, 66.0, 78.0, 72.0, 60.0, 72.0, 66.0, 54.0, 54.0, 60.0, 60.0, 54.0, 66.0, 54.0, 60.0, 60.0, 66.0, 66.0, 60.0, 66.0, 60.0, 60.0, 60.0, 60.0, 60.0, 60.0, 60.0, 60.0, 60.0, 54.0, 60.0, 54.0, 54.0, 60.0, 54.0, 54.0, 60.0, 60.0, 54.0, 60.0, 60.0, 60.0, 54.0, 54.0, 60.0, 60.0, 60.0, 60.0, 54.0, 60.0, 60.0, 60.0, 60.0, 48.0, 60.0, 60.0, 60.0, 54.0, 60.0, 54.0, 60.0, 54.0, 60.0, 60.0, 60.0, 60.0, 54.0, 60.0, 60.0, 60.0, 60.0, 54.0, 60.0, 60.0, 72.0, 60.0, 66.0, 60.0, 60.0, 60.0, 60.0, 54.0, 60.0, 72.0, 60.0, 60.0, 60.0, 54.0, 54.0, 54.0, 60.0, 60.0, 60.0, 60.0, 60.0, 60.0, 60.0, 60.0, 66.0, 66.0, 78.0, 84.0, 84.0, 84.0, 72.0, 84.0, 84.0, 72.0, 66.0, 72.0, 66.0, 60.0, 60.0, 60.0, 60.0, 60.0, 60.0, 60.0, 60.0, 60.0, 48.0, 54.0, 54.0, 60.0, 54.0, 54.0, 54.0, 60.0, 60.0, 60.0, 66.0, 60.0, 60.0, 66.0, 54.0, 60.0, 60.0, 54.0, 60.0, 60.0, 60.0, 60.0, 60.0, 66.0, 66.0, 72.0, 66.0, 54.0, 54.0, 60.0, 60.0, 60.0, 60.0, 60.0, 48.0, 54.0, 54.0, 60.0, 54.0, 66.0, 54.0, 54.0, 60.0, 54.0, 54.0, 54.0, 54.0, 54.0, 54.0, 60.0, 60.0, 66.0, 66.0, 66.0, 72.0, 84.0, 72.0, 66.0, 66.0, 66.0, 72.0, 72.0, 78.0, 66.0, 66.0, 60.0, 66.0, 66.0, 60.0, 60.0, 60.0, 54.0, 60.0, 66.0, 54.0, 54.0, 54.0, 54.0, 60.0, 54.0, 60.0, 54.0, 60.0, 54.0, 60.0, 54.0, 54.0, 60.0, 60.0, 72.0, 60.0, 48.0, 60.0, 54.0, 60.0, 54.0, 60.0, 54.0, 60.0, 60.0, 60.0, 60.0, 60.0, 60.0, 60.0, 60.0, 54.0, 60.0, 60.0, 66.0, 66.0, 60.0, 54.0, 60.0, 60.0, 66.0, 66.0, 72.0, 60.0, 66.0, 60.0, 72.0, 66.0, 54.0, 54.0, 60.0, 60.0, 66.0, 66.0, 54.0, 54.0, 66.0, 54.0, 66.0, 60.0, 60.0, 60.0, 66.0, 54.0, 60.0, 60.0, 60.0, 66.0, 60.0, 60.0, 66.0, 60.0, 60.0, 66.0, 54.0, 60.0, 60.0, 72.0, 66.0, 66.0, 60.0, 60.0, 60.0, 60.0, 60.0, 66.0, 60.0, 66.0, 60.0, 60.0, 66.0, 66.0, 66.0, 66.0, 54.0, 60.0, 66.0, 60.0, 60.0, 66.0, 66.0, 66.0, 60.0, 72.0, 66.0, 60.0, 60.0, 60.0, 60.0, 60.0, 60.0, 60.0, 66.0, 60.0, 66.0, 66.0, 60.0, 72.0, 66.0, 66.0, 66.0, 66.0, 66.0, 66.0, 66.0, 66.0, 66.0, 60.0, 66.0, 66.0, 54.0, 66.0, 66.0, 54.0, 66.0, 60.0, 60.0, 60.0, 60.0, 66.0, 60.0, 66.0, 66.0, 60.0, 66.0, 60.0, 60.0, 60.0, 60.0, 60.0, 60.0, 54.0, 60.0, 60.0, 60.0, 66.0, 60.0, 66.0, 66.0, 66.0, 60.0, 66.0, 66.0, 66.0, 60.0, 66.0, 66.0, 60.0, 66.0, 66.0, 60.0, 60.0, 60.0, 60.0, 66.0, 60.0, 66.0, 60.0, 60.0, 60.0, 60.0, 60.0, 66.0, 60.0, 66.0, 60.0, 72.0, 60.0, 60.0, 66.0, 60.0, 60.0, 66.0, 60.0, 66.0, 60.0, 60.0, 66.0, 60.0, 60.0, 66.0, 60.0, 66.0, 60.0, 60.0, 72.0, 60.0, 60.0, 60.0, 72.0, 60.0, 60.0, 60.0, 66.0, 66.0, 60.0, 66.0, 60.0, 66.0, 60.0, 66.0, 60.0, 66.0, 72.0, 84.0, 72.0, 66.0, 60.0, 60.0, 54.0, 60.0, 54.0, 54.0, 66.0, 54.0, 60.0, 60.0, 60.0, 60.0, 54.0, 66.0, 60.0, 48.0, 54.0, 60.0, 54.0, 54.0, 60.0, 54.0, 60.0, 54.0, 66.0, 66.0, 60.0, 54.0, 54.0, 54.0, 54.0, 66.0, 78.0, 66.0, 60.0, 54.0, 60.0, 72.0, 78.0, 72.0, 72.0, 60.0, 66.0, 66.0, 66.0, 60.0, 60.0, 66.0, 54.0, 60.0, 54.0, 60.0, 54.0, 60.0, 66.0, 54.0, 54.0, 48.0, 60.0, 54.0, 60.0, 60.0, 54.0, 54.0, 60.0, 54.0, 60.0, 54.0, 60.0, 60.0, 54.0, 60.0, 60.0, 60.0, 60.0, 66.0, 60.0, 54.0, 54.0, 60.0, 54.0, 60.0, 60.0, 60.0, 54.0, 66.0, 66.0, 60.0, 60.0, 60.0, 60.0, 66.0, 60.0, 66.0, 60.0, 66.0, 54.0, 60.0, 60.0, 60.0, 54.0, 66.0, 60.0, 66.0, 54.0, 66.0, 60.0, 66.0, 60.0, 66.0, 66.0, 60.0, 66.0, 60.0, 66.0, 54.0, 60.0, 60.0, 60.0, 66.0, 60.0, 66.0, 66.0, 60.0, 60.0, 60.0, 66.0, 60.0, 60.0, 60.0, 66.0, 60.0, 54.0, 66.0, 54.0, 60.0, 60.0, 54.0, 66.0, 54.0, 66.0, 60.0, 60.0, 48.0, 60.0, 60.0, 60.0, 66.0, 60.0, 60.0, 60.0, 60.0, 66.0, 60.0, 66.0, 60.0, 66.0, 66.0, 60.0, 66.0, 60.0, 66.0, 60.0, 60.0, 60.0, 54.0, 60.0, 54.0, 60.0, 60.0, 60.0, 60.0, 60.0, 60.0, 66.0, 60.0, 60.0, 66.0, 60.0, 60.0, 60.0, 66.0, 60.0, 60.0, 60.0, 60.0, 60.0, 60.0, 66.0, 66.0, 66.0, 60.0, 60.0, 60.0, 60.0, 60.0, 60.0, 54.0, 60.0, 60.0, 54.0, 60.0, 66.0, 60.0, 66.0, 66.0, 60.0, 72.0, 66.0, 60.0, 60.0, 54.0, 66.0, 66.0, 60.0, 66.0, 60.0, 66.0, 60.0, 60.0, 60.0, 66.0, 60.0, 60.0, 60.0, 60.0, 54.0, 66.0, 60.0, 60.0, 60.0, 66.0, 60.0, 60.0, 60.0, 60.0, 66.0, 60.0, 66.0, 66.0, 60.0, 60.0, 54.0, 54.0, 60.0, 60.0, 60.0, 54.0, 60.0, 48.0, 60.0, 60.0, 60.0, 60.0, 54.0, 60.0, 54.0, 60.0, 54.0, 60.0, 60.0, 60.0, 60.0, 60.0, 60.0, 60.0, 54.0, 66.0, 54.0, 54.0, 66.0, 66.0, 54.0, 66.0, 66.0, 66.0, 54.0, 60.0, 66.0, 54.0, 54.0, 60.0, 66.0, 60.0, 60.0, 66.0, 66.0, 60.0, 60.0, 54.0, 60.0, 60.0, 66.0, 60.0, 60.0, 60.0, 60.0, 60.0, 60.0, 60.0, 54.0, 54.0, 60.0, 54.0, 60.0, 66.0, 60.0, 60.0, 54.0, 66.0, 60.0, 60.0, 66.0, 54.0, 66.0, 60.0, 54.0, 60.0, 66.0, 60.0, 60.0, 60.0, 54.0, 66.0, 66.0, 54.0, 60.0, 60.0, 60.0, 66.0, 60.0, 60.0, 66.0, 60.0, 60.0, 60.0, 54.0, 60.0, 54.0, 54.0, 60.0, 60.0, 54.0, 54.0, 54.0, 60.0, 60.0, 54.0, 60.0, 60.0, 66.0, 60.0, 66.0, 54.0, 54.0, 48.0, 60.0, 66.0, 60.0, 72.0, 60.0, 60.0, 60.0, 66.0, 72.0, 60.0, 60.0, 66.0, 60.0, 60.0, 72.0, 60.0, 54.0, 60.0, 60.0, 72.0, 60.0, 60.0, 60.0, 54.0, 54.0, 54.0, 54.0, 60.0, 60.0, 54.0, 60.0, 54.0, 60.0, 60.0, 72.0, 60.0, 60.0, 54.0, 66.0, 78.0, 66.0, 54.0, 60.0, 54.0, 60.0, 54.0, 54.0, 54.0, 54.0, 60.0, 54.0, 60.0, 54.0, 60.0, 60.0, 60.0, 60.0, 60.0, 54.0, 60.0, 66.0, 54.0, 60.0, 60.0, 60.0, 60.0, 66.0, 60.0, 60.0, 54.0, 60.0, 60.0, 54.0, 60.0, 54.0, 60.0, 66.0, 60.0, 60.0, 60.0, 60.0, 54.0, 54.0, 54.0, 60.0, 60.0, 60.0, 60.0, 60.0, 72.0, 60.0, 54.0, 60.0, 60.0, 60.0, 60.0, 60.0, 60.0, 60.0, 54.0, 66.0, 60.0, 54.0, 54.0, 60.0, 54.0, 66.0, 66.0, 54.0, 54.0, 60.0, 54.0, 54.0, 54.0, 60.0, 54.0, 54.0, 60.0, 60.0, 60.0, 54.0, 60.0, 60.0, 54.0, 60.0, 60.0, 54.0, 54.0, 66.0, 54.0, 60.0, 60.0, 60.0, 54.0, 60.0, 60.0, 54.0, 54.0, 60.0, 54.0, 60.0, 60.0, 60.0, 54.0, 54.0, 60.0, 54.0, 60.0, 54.0, 60.0, 60.0, 60.0, 60.0, 54.0, 54.0, 54.0, 60.0, 54.0, 60.0, 54.0, 54.0, 60.0, 48.0, 60.0, 60.0, 60.0, 60.0, 60.0, 54.0, 60.0, 54.0, 54.0, 54.0, 60.0, 54.0, 60.0, 54.0, 60.0, 60.0, 60.0, 60.0, 60.0, 60.0, 54.0, 54.0, 60.0, 54.0, 66.0, 60.0, 66.0, 66.0, 54.0, 60.0, 60.0, 66.0, 60.0, 54.0, 54.0, 54.0, 54.0, 54.0, 54.0, 66.0, 66.0, 54.0, 66.0, 54.0, 60.0, 54.0, 60.0, 54.0, 60.0, 54.0, 54.0, 60.0, 60.0, 54.0, 60.0, 60.0, 54.0, 60.0, 60.0, 54.0, 60.0, 72.0, 60.0, 60.0, 54.0, 54.0, 54.0, 54.0, 60.0, 48.0, 54.0, 54.0, 66.0, 54.0, 60.0, 60.0, 60.0, 54.0, 54.0, 54.0, 60.0, 60.0, 54.0, 54.0, 60.0, 60.0, 54.0, 54.0, 60.0, 54.0, 54.0, 54.0, 66.0, 54.0, 54.0, 60.0, 54.0, 60.0, 54.0, 60.0, 60.0, 54.0, 60.0, 54.0, 54.0, 54.0, 54.0, 60.0, 60.0, 60.0, 60.0, 54.0, 54.0, 54.0, 60.0, 60.0, 60.0, 60.0, 60.0, 54.0, 48.0, 54.0, 60.0, 54.0, 54.0, 54.0, 48.0, 54.0, 54.0, 54.0, 60.0, 72.0, 60.0, 54.0, 60.0, 54.0, 60.0, 54.0, 48.0, 54.0, 60.0, 48.0, 54.0, 60.0, 48.0, 48.0, 60.0, 60.0, 54.0, 60.0, 60.0, 60.0, 48.0, 54.0, 54.0, 48.0, 48.0, 54.0, 54.0, 54.0, 60.0, 66.0, 60.0, 54.0, 60.0, 54.0, 60.0, 60.0, 60.0, 54.0, 54.0, 60.0, 54.0, 54.0, 54.0, 54.0, 54.0, 54.0, 60.0, 48.0, 60.0, 66.0, 66.0, 60.0, 54.0, 54.0, 54.0, 48.0, 60.0, 54.0, 60.0, 54.0, 54.0, 48.0, 54.0, 60.0, 54.0, 66.0, 54.0, 60.0, 54.0, 54.0, 60.0, 54.0, 54.0, 54.0, 54.0, 54.0, 60.0, 54.0, 60.0, 54.0, 60.0, 54.0, 60.0, 54.0, 66.0, 60.0, 54.0, 60.0, 60.0, 60.0, 60.0, 60.0, 66.0, 54.0, 60.0, 60.0, 54.0, 54.0, 54.0, 60.0, 54.0, 54.0, 48.0, 60.0, 54.0, 60.0, 48.0, 60.0, 54.0, 54.0, 66.0, 54.0, 60.0, 54.0, 54.0, 60.0, 54.0, 54.0, 60.0, 48.0, 54.0, 54.0, 54.0, 60.0, 54.0, 60.0, 60.0, 60.0, 54.0, 60.0, 60.0, 48.0, 54.0, 54.0, 54.0, 60.0, 54.0, 54.0, 60.0, 54.0, 54.0, 54.0, 60.0, 60.0, 60.0, 54.0, 48.0, 54.0, 54.0, 66.0, 60.0, 54.0, 60.0, 54.0, 54.0, 60.0, 54.0, 60.0, 60.0, 60.0, 60.0, 60.0, 60.0, 54.0, 60.0, 54.0, 54.0, 54.0, 60.0, 60.0, 60.0, 60.0, 66.0, 66.0, 78.0, 66.0, 66.0, 72.0, 78.0, 72.0, 66.0, 66.0, 72.0, 72.0, 78.0, 72.0, 66.0, 72.0, 72.0, 66.0, 72.0, 78.0, 72.0, 66.0, 66.0, 66.0, 66.0, 66.0, 72.0, 66.0, 66.0, 66.0, 66.0, 66.0, 66.0, 66.0, 66.0, 78.0, 66.0, 66.0, 66.0, 60.0, 66.0, 66.0, 66.0, 66.0, 60.0, 66.0, 60.0, 66.0, 60.0, 60.0, 60.0, 66.0, 66.0, 66.0, 60.0, 66.0, 66.0, 60.0, 66.0, 66.0, 66.0, 60.0, 66.0, 60.0, 60.0, 60.0, 54.0, 60.0, 60.0, 60.0, 54.0, 60.0, 60.0, 60.0, 60.0, 54.0, 60.0, 60.0, 60.0, 60.0, 72.0, 60.0, 60.0, 54.0, 60.0, 60.0, 60.0, 60.0, 54.0, 54.0, 60.0, 60.0, 66.0, 54.0, 60.0, 66.0, 72.0, 66.0, 60.0, 66.0, 66.0, 60.0, 66.0, 66.0, 66.0, 60.0, 66.0, 66.0, 60.0, 66.0, 60.0, 66.0, 60.0, 66.0, 60.0, 60.0, 66.0, 66.0, 66.0, 60.0, 66.0, 60.0, 60.0, 66.0, 60.0, 66.0, 60.0, 60.0, 60.0, 66.0, 66.0, 60.0, 66.0, 60.0, 66.0, 66.0, 60.0, 72.0, 66.0, 66.0, 60.0, 60.0, 66.0, 60.0, 66.0, 66.0, 66.0, 66.0, 66.0, 78.0, 84.0, 72.0, 66.0, 78.0, 66.0, 66.0, 66.0, 66.0, 60.0, 60.0, 54.0, 60.0, 60.0, 60.0, 60.0, 60.0, 66.0, 54.0, 66.0, 60.0, 54.0, 60.0, 54.0, 60.0, 60.0, 66.0, 66.0, 60.0, 54.0, 60.0, 60.0, 54.0, 54.0, 60.0, 60.0, 54.0, 60.0, 60.0, 66.0, 60.0, 60.0, 54.0, 66.0, 54.0, 60.0, 60.0, 48.0, 60.0, 60.0, 54.0, 54.0, 60.0, 60.0, 54.0, 54.0, 54.0, 60.0, 54.0, 60.0, 60.0, 60.0, 60.0, 60.0, 60.0, 60.0, 60.0, 54.0, 54.0, 60.0, 54.0, 54.0, 54.0, 60.0, 60.0, 60.0, 60.0, 60.0, 66.0, 60.0, 60.0, 54.0, 60.0, 54.0, 54.0, 60.0, 60.0, 60.0, 60.0, 54.0, 54.0, 54.0, 54.0, 54.0, 54.0, 54.0, 60.0, 54.0, 60.0, 60.0, 60.0, 66.0, 54.0, 54.0, 54.0, 60.0, 54.0, 60.0, 54.0, 54.0, 60.0, 54.0, 54.0, 54.0, 60.0, 60.0, 60.0, 54.0, 60.0, 54.0, 60.0, 54.0, 60.0, 54.0, 60.0, 60.0, 60.0, 54.0, 54.0, 54.0, 54.0, 54.0, 60.0, 60.0, 54.0, 54.0, 60.0, 54.0, 54.0, 54.0, 60.0, 48.0, 60.0, 60.0, 54.0, 54.0, 54.0, 60.0, 60.0, 54.0, 54.0, 54.0, 54.0, 54.0, 54.0, 60.0, 54.0, 66.0, 54.0, 60.0, 60.0, 60.0, 54.0, 54.0, 60.0, 54.0, 54.0, 60.0, 48.0, 60.0, 54.0, 60.0, 54.0, 60.0, 60.0, 60.0, 60.0, 54.0, 54.0, 54.0, 60.0, 54.0, 60.0, 60.0, 66.0, 66.0, 60.0, 60.0, 60.0, 54.0, 54.0, 54.0, 60.0, 60.0, 72.0, 60.0, 66.0, 60.0, 66.0, 66.0, 66.0, 66.0, 66.0, 72.0, 66.0, 66.0, 60.0, 66.0, 60.0, 66.0, 60.0, 60.0, 60.0, 54.0, 54.0, 60.0, 48.0, 60.0, 54.0, 54.0, 60.0, 54.0, 60.0, 60.0, 54.0, 54.0, 60.0, 54.0, 54.0, 54.0, 60.0, 54.0, 54.0, 48.0, 54.0, 54.0, 54.0, 54.0, 54.0, 60.0, 54.0, 60.0, 54.0, 60.0, 60.0, 60.0, 54.0, 60.0, 60.0, 60.0, 60.0, 72.0, 72.0, 66.0, 66.0, 66.0, 66.0, 60.0, 60.0, 60.0, 66.0, 54.0, 60.0, 54.0, 60.0, 54.0, 54.0, 48.0, 48.0, 54.0, 54.0, 54.0, 54.0, 48.0, 60.0, 60.0, 48.0, 54.0, 60.0, 54.0, 60.0, 54.0, 54.0, 60.0, 48.0, 60.0, 54.0, 54.0, 54.0, 60.0, 54.0, 54.0, 60.0, 48.0, 60.0, 60.0, 60.0, 60.0, 54.0, 60.0, 54.0, 60.0, 60.0, 54.0, 48.0, 60.0, 48.0, 54.0, 60.0, 54.0, 54.0, 54.0, 54.0, 54.0, 60.0, 54.0, 54.0, 60.0, 54.0, 54.0, 54.0, 54.0, 54.0, 54.0, 54.0, 54.0, 60.0, 54.0, 48.0, 54.0, 60.0, 54.0, 54.0, 60.0, 54.0, 54.0, 60.0, 54.0, 60.0, 54.0, 48.0, 54.0, 54.0, 60.0, 54.0, 48.0, 54.0, 54.0, 54.0, 54.0, 54.0, 60.0, 54.0, 54.0, 48.0, 54.0, 60.0, 60.0, 54.0, 54.0, 60.0, 60.0, 60.0, 60.0, 54.0, 60.0, 60.0, 54.0, 66.0, 60.0, 60.0, 60.0, 66.0, 66.0, 66.0, 66.0, 60.0, 60.0, 66.0, 60.0, 54.0, 54.0, 48.0, 48.0, 54.0, 60.0, 66.0, 66.0, 66.0, 60.0, 60.0, 60.0, 72.0, 84.0, 78.0, 66.0, 54.0, 54.0, 54.0, 48.0, 54.0, 42.0, 48.0, 48.0, 54.0, 48.0, 42.0, 48.0, 48.0, 48.0, 48.0, 48.0, 42.0, 48.0, 48.0, 54.0, 48.0, 54.0, 42.0, 48.0, 48.0, 60.0, 72.0, 66.0, 66.0, 72.0, 66.0, 60.0, 66.0, 72.0, 66.0, 66.0, 60.0, 72.0, 72.0, 66.0, 54.0, 48.0, 60.0, 60.0, 66.0, 72.0, 66.0, 78.0, 72.0, 84.0, 72.0, 66.0, 60.0, 72.0, 60.0, 60.0, 60.0, 60.0, 60.0, 60.0, 60.0, 60.0, 54.0, 54.0, 60.0, 54.0, 60.0, 60.0, 60.0, 48.0, 54.0, 54.0, 60.0, 54.0, 54.0, 54.0, 54.0, 54.0, 54.0, 66.0, 78.0, 66.0, 78.0, 90.0, 78.0, 66.0, 66.0, 54.0, 48.0, 54.0, 48.0, 60.0, 54.0, 48.0, 48.0, 48.0, 48.0, 48.0, 60.0, 66.0, 54.0, 66.0, 54.0, 48.0, 48.0, 48.0, 48.0, 48.0, 54.0, 48.0, 48.0, 48.0, 48.0, 60.0, 48.0, 54.0, 48.0, 48.0, 48.0, 54.0, 60.0, 60.0, 48.0, 42.0, 48.0, 48.0, 54.0, 48.0, 48.0, 48.0, 48.0, 54.0, 54.0, 54.0, 54.0, 42.0, 42.0, 48.0, 48.0, 42.0, 48.0, 48.0, 48.0, 60.0, 54.0, 54.0, 54.0, 54.0, 54.0, 54.0, 60.0, 48.0, 54.0, 60.0, 48.0, 54.0, 54.0, 54.0, 60.0, 60.0, 60.0, 54.0, 54.0, 60.0, 54.0, 60.0, 54.0, 54.0, 60.0, 54.0, 60.0, 60.0, 54.0, 48.0, 60.0, 54.0, 60.0, 54.0, 54.0, 60.0, 54.0, 60.0, 54.0, 60.0, 54.0, 60.0, 60.0, 54.0, 60.0, 60.0, 54.0, 54.0, 54.0, 54.0, 60.0, 54.0, 60.0, 54.0, 54.0, 60.0, 60.0, 60.0, 54.0, 60.0, 54.0, 60.0, 54.0, 54.0, 54.0, 60.0, 54.0, 54.0, 60.0, 60.0, 54.0, 54.0, 54.0, 60.0, 54.0, 54.0, 54.0, 54.0, 60.0, 54.0, 60.0, 54.0, 54.0, 60.0, 60.0, 60.0, 54.0, 60.0, 60.0, 60.0, 60.0, 54.0, 54.0, 54.0, 54.0, 60.0, 48.0, 54.0, 54.0, 54.0, 66.0, 66.0, 54.0, 60.0, 48.0, 48.0, 48.0, 54.0, 48.0, 54.0, 54.0, 66.0, 72.0, 66.0, 54.0, 54.0, 48.0, 48.0, 54.0, 48.0, 54.0, 54.0, 48.0, 54.0, 48.0, 54.0, 54.0, 54.0, 48.0, 48.0, 54.0, 48.0, 54.0, 54.0, 48.0, 54.0, 48.0, 48.0, 54.0, 54.0, 48.0, 54.0, 48.0, 48.0, 54.0, 54.0, 54.0, 48.0, 60.0, 48.0, 54.0, 48.0, 54.0, 54.0, 54.0, 54.0, 60.0, 48.0, 54.0, 54.0, 60.0, 54.0, 54.0, 54.0, 48.0, 54.0, 48.0, 54.0, 48.0, 48.0, 54.0, 54.0, 54.0, 60.0, 66.0, 54.0, 48.0, 54.0, 48.0, 42.0, 54.0, 54.0, 54.0, 54.0, 54.0, 54.0, 54.0, 54.0, 54.0, 54.0, 54.0, 48.0, 54.0, 54.0, 48.0, 48.0, 54.0, 48.0, 48.0, 54.0, 48.0, 48.0, 54.0, 48.0, 48.0, 54.0, 48.0, 48.0, 54.0, 48.0, 48.0, 60.0, 66.0, 54.0, 48.0, 48.0, 48.0, 54.0, 48.0, 48.0, 54.0, 48.0, 48.0, 48.0, 54.0, 48.0, 54.0, 60.0, 54.0, 48.0, 54.0, 48.0, 48.0, 54.0, 54.0, 48.0, 54.0, 54.0, 48.0, 54.0, 54.0, 54.0, 60.0, 54.0, 66.0, 66.0, 54.0, 54.0, 66.0, 54.0, 54.0, 54.0, 48.0, 54.0, 54.0, 54.0, 48.0, 54.0, 60.0, 60.0, 54.0, 48.0, 60.0, 48.0, 54.0, 54.0, 54.0, 54.0, 48.0, 54.0, 48.0, 54.0, 54.0, 54.0, 54.0, 54.0, 54.0, 54.0, 48.0, 54.0, 54.0, 54.0, 48.0, 60.0, 72.0, 72.0, 78.0, 66.0, 66.0, 60.0, 66.0, 60.0, 66.0, 66.0, 60.0, 66.0, 72.0, 78.0, 66.0, 72.0, 72.0, 72.0, 66.0, 66.0, 66.0, 60.0, 66.0, 54.0, 54.0, 60.0, 54.0, 60.0, 54.0, 54.0, 54.0, 54.0, 60.0, 54.0, 54.0, 60.0, 54.0, 54.0, 54.0, 54.0, 54.0, 54.0, 54.0, 54.0, 60.0, 60.0, 54.0, 54.0, 66.0, 60.0, 54.0, 60.0, 60.0, 60.0, 54.0, 60.0, 60.0, 60.0, 54.0, 60.0, 60.0, 60.0, 60.0, 60.0, 60.0, 60.0, 60.0, 54.0, 60.0, 66.0, 60.0, 48.0, 54.0, 60.0, 60.0, 54.0, 60.0, 60.0, 60.0, 60.0, 60.0, 60.0, 60.0, 66.0, 54.0, 60.0, 66.0, 66.0, 60.0, 60.0, 66.0, 60.0, 72.0, 60.0, 66.0, 78.0, 66.0, 78.0, 72.0, 72.0, 66.0, 66.0, 60.0, 66.0, 60.0, 72.0, 78.0, 90.0, 78.0, 72.0, 60.0, 66.0, 66.0, 66.0, 66.0, 54.0, 60.0, 60.0, 60.0, 54.0, 60.0, 60.0, 54.0, 60.0, 60.0, 60.0, 60.0, 60.0, 60.0, 60.0, 60.0, 54.0, 54.0, 48.0, 54.0, 54.0, 60.0, 60.0, 54.0, 60.0, 54.0, 60.0, 60.0, 60.0, 48.0, 60.0, 54.0, 54.0, 60.0, 60.0, 54.0, 60.0, 60.0, 54.0, 60.0, 60.0, 66.0, 66.0, 78.0, 66.0, 78.0, 66.0, 66.0, 66.0, 72.0, 60.0, 60.0, 54.0, 60.0, 60.0, 60.0, 54.0, 60.0, 54.0, 66.0, 66.0, 66.0, 72.0, 66.0, 60.0, 60.0, 72.0, 66.0, 60.0, 60.0, 54.0, 60.0, 60.0, 54.0, 60.0, 60.0, 60.0, 60.0, 60.0, 66.0, 60.0, 66.0, 66.0, 66.0, 60.0, 60.0, 60.0, 48.0, 60.0, 60.0, 60.0, 66.0, 60.0, 60.0, 66.0, 54.0, 60.0, 60.0, 66.0, 60.0, 60.0, 60.0, 60.0, 66.0, 72.0, 66.0, 60.0, 60.0, 72.0, 60.0, 66.0, 60.0, 60.0, 60.0, 60.0, 54.0, 60.0, 54.0, 54.0, 48.0, 54.0, 48.0, 48.0, 48.0, 54.0, 54.0, 48.0, 54.0, 48.0, 48.0, 48.0, 54.0, 48.0, 54.0, 60.0, 54.0, 54.0, 54.0, 66.0, 66.0, 66.0, 60.0, 60.0, 66.0, 60.0, 66.0, 66.0, 66.0, 66.0, 66.0, 72.0, 72.0, 66.0, 66.0, 66.0, 66.0, 72.0, 66.0, 66.0, 66.0, 66.0, 60.0, 66.0, 66.0, 66.0, 66.0, 66.0, 72.0, 66.0, 66.0, 66.0, 66.0, 60.0, 72.0, 84.0, 78.0, 72.0, 66.0, 66.0, 66.0, 60.0, 66.0, 66.0, 60.0, 60.0, 60.0, 60.0, 54.0, 60.0, 54.0, 54.0, 60.0, 60.0, 60.0, 60.0, 66.0, 60.0, 66.0, 60.0, 60.0, 60.0, 60.0, 66.0, 66.0, 66.0, 66.0, 60.0, 60.0, 66.0, 60.0, 60.0, 60.0, 66.0, 66.0, 54.0, 54.0, 66.0, 66.0, 60.0, 60.0, 66.0, 66.0, 60.0, 72.0, 60.0, 66.0, 54.0, 54.0, 48.0, 54.0, 54.0, 54.0, 60.0, 54.0, 60.0, 54.0, 60.0, 60.0, 54.0, 60.0, 60.0, 66.0, 66.0, 60.0, 60.0, 66.0, 60.0, 66.0, 66.0, 72.0, 66.0, 60.0, 54.0, 60.0, 66.0, 60.0, 54.0, 48.0, 54.0, 54.0, 54.0, 54.0, 54.0, 60.0, 66.0, 60.0, 66.0, 60.0, 60.0, 60.0, 66.0, 60.0, 66.0, 60.0, 60.0, 54.0, 54.0, 66.0, 60.0, 66.0, 54.0, 60.0, 66.0, 54.0, 54.0, 66.0, 54.0, 60.0, 60.0, 60.0, 60.0, 60.0, 66.0, 60.0, 66.0, 60.0, 54.0, 60.0, 60.0, 72.0, 66.0, 60.0, 60.0, 60.0, 66.0, 60.0, 60.0, 60.0, 60.0, 54.0, 54.0, 60.0, 66.0, 54.0, 60.0, 54.0, 54.0, 60.0, 54.0, 60.0, 60.0, 60.0, 60.0, 60.0, 66.0, 60.0, 54.0, 66.0, 66.0, 54.0, 54.0, 54.0, 66.0, 60.0, 66.0, 60.0, 66.0, 60.0, 60.0, 60.0, 60.0, 54.0, 60.0, 54.0, 60.0, 60.0, 54.0, 60.0, 54.0, 60.0, 48.0, 60.0, 60.0, 48.0, 54.0, 54.0, 60.0, 54.0, 54.0, 60.0, 60.0, 54.0, 54.0, 66.0, 60.0, 60.0, 60.0, 60.0, 54.0, 60.0, 60.0, 60.0, 66.0, 54.0, 60.0, 66.0, 60.0, 60.0, 54.0, 60.0, 54.0, 60.0, 60.0, 72.0, 66.0, 60.0, 66.0, 72.0, 72.0, 72.0, 72.0, 72.0, 78.0, 78.0, 66.0, 72.0, 60.0, 60.0, 54.0, 48.0, 54.0, 54.0, 66.0, 60.0, 48.0, 60.0, 54.0, 60.0, 60.0, 60.0, 60.0, 60.0, 66.0, 66.0, 60.0, 60.0, 60.0, 60.0, 60.0, 60.0, 60.0, 54.0, 54.0, 60.0, 54.0, 60.0, 60.0, 54.0, 60.0, 60.0, 60.0, 66.0, 60.0, 54.0, 60.0, 54.0, 60.0, 60.0, 54.0, 60.0, 60.0, 54.0, 66.0, 60.0, 60.0, 60.0, 60.0, 54.0, 60.0, 60.0, 60.0, 54.0, 54.0, 60.0, 48.0, 60.0, 60.0, 66.0, 60.0, 60.0, 54.0, 60.0, 60.0, 60.0, 60.0, 60.0, 60.0, 54.0, 60.0, 66.0, 66.0, 66.0, 66.0, 60.0, 54.0, 60.0, 60.0, 60.0, 60.0, 60.0, 60.0, 60.0, 66.0, 66.0, 54.0, 54.0, 54.0, 48.0, 60.0, 60.0, 66.0, 60.0, 60.0, 60.0, 60.0, 66.0, 66.0, 60.0, 60.0, 54.0, 60.0, 66.0, 60.0, 60.0, 60.0, 60.0, 60.0, 60.0, 54.0, 60.0, 60.0, 60.0, 60.0, 54.0, 60.0, 60.0, 54.0, 60.0, 60.0, 60.0, 54.0, 54.0, 54.0, 54.0, 60.0, 54.0, 54.0, 60.0, 60.0, 60.0, 60.0, 60.0, 54.0, 60.0, 66.0, 54.0, 60.0, 60.0, 54.0, 54.0, 60.0, 54.0, 60.0, 66.0, 72.0, 60.0, 60.0, 60.0, 60.0, 66.0, 60.0, 60.0, 60.0, 54.0, 66.0, 60.0, 66.0, 60.0, 60.0, 72.0, 66.0, 60.0, 66.0, 66.0, 60.0, 66.0, 78.0, 66.0, 66.0, 66.0, 60.0, 66.0, 66.0, 66.0, 66.0, 72.0, 72.0, 72.0, 72.0, 72.0, 66.0, 72.0, 72.0, 66.0, 66.0, 72.0, 66.0, 66.0, 60.0, 66.0, 72.0, 66.0, 78.0, 72.0, 72.0, 66.0, 72.0, 84.0, 72.0, 60.0, 60.0, 60.0, 60.0, 72.0, 66.0, 78.0, 90.0, 78.0, 72.0, 72.0, 84.0, 84.0, 78.0, 72.0, 72.0, 72.0, 72.0, 72.0, 72.0, 72.0, 84.0, 84.0, 90.0, 78.0, 72.0, 72.0, 78.0, 72.0, 72.0, 72.0, 72.0, 78.0, 78.0, 66.0, 72.0, 72.0, 66.0, 72.0, 72.0, 66.0, 60.0, 66.0, 60.0, 66.0, 72.0, 66.0, 66.0, 54.0, 66.0, 78.0, 66.0, 60.0, 72.0, 60.0, 66.0, 60.0, 54.0, 60.0, 60.0, 72.0, 60.0, 66.0, 60.0, 60.0, 60.0, 60.0, 66.0, 60.0, 54.0, 60.0, 60.0, 54.0, 66.0, 60.0, 60.0, 66.0, 60.0, 66.0, 60.0, 72.0, 66.0, 60.0, 60.0, 54.0, 66.0, 66.0, 60.0, 54.0, 60.0, 60.0, 66.0, 60.0, 60.0, 66.0, 60.0, 60.0, 60.0, 54.0, 54.0, 54.0, 54.0, 54.0, 54.0, 54.0, 54.0, 54.0, 54.0, 54.0, 54.0, 54.0, 54.0, 54.0, 48.0, 54.0, 60.0, 60.0, 54.0, 54.0, 54.0, 48.0, 60.0, 66.0, 66.0, 66.0, 78.0, 66.0, 72.0, 72.0, 72.0, 66.0, 60.0, 66.0, 66.0, 54.0, 66.0, 54.0, 60.0, 60.0, 54.0, 54.0, 54.0, 54.0, 54.0, 54.0, 60.0, 60.0, 66.0, 66.0, 66.0, 78.0, 66.0, 54.0, 54.0, 66.0, 60.0, 60.0, 54.0, 60.0, 60.0, 54.0, 60.0, 54.0, 60.0, 60.0, 60.0, 54.0, 60.0, 60.0, 60.0, 54.0, 60.0, 54.0, 60.0, 60.0, 60.0, 60.0, 54.0, 60.0, 60.0, 54.0, 54.0, 60.0, 60.0, 54.0, 60.0, 60.0, 60.0, 60.0, 60.0, 60.0, 54.0, 66.0, 60.0, 60.0, 60.0, 60.0, 54.0, 60.0, 60.0, 54.0, 60.0, 54.0, 60.0, 60.0, 66.0, 60.0, 60.0, 66.0, 60.0, 48.0, 60.0, 54.0, 54.0, 60.0, 54.0, 60.0, 54.0, 60.0, 54.0, 60.0, 66.0, 66.0, 54.0, 54.0, 60.0, 54.0, 60.0, 60.0, 60.0, 60.0, 54.0, 54.0, 60.0, 60.0, 60.0, 54.0, 60.0, 54.0, 60.0, 54.0, 60.0, 60.0, 54.0, 54.0, 54.0, 54.0, 54.0, 60.0, 54.0, 60.0, 60.0, 60.0, 54.0, 60.0, 54.0, 60.0, 54.0, 60.0, 60.0, 54.0, 54.0, 60.0, 60.0, 60.0, 60.0, 60.0, 54.0, 60.0, 54.0, 54.0, 60.0, 60.0, 54.0, 54.0, 54.0, 48.0, 54.0, 54.0, 48.0, 54.0, 48.0, 54.0, 54.0, 60.0, 54.0, 54.0, 54.0, 66.0, 66.0, 78.0, 66.0, 60.0, 60.0, 66.0, 54.0, 66.0, 54.0, 60.0, 54.0, 60.0, 54.0, 54.0, 48.0, 60.0, 60.0, 66.0, 60.0, 72.0, 72.0, 66.0, 60.0, 66.0, 60.0, 72.0, 78.0, 90.0, 78.0, 72.0, 66.0, 78.0, 66.0, 66.0, 60.0, 72.0, 66.0, 60.0, 54.0, 54.0, 54.0, 66.0, 72.0, 72.0, 84.0, 72.0, 78.0, 66.0, 60.0, 60.0, 66.0, 60.0, 60.0, 48.0, 54.0, 66.0, 78.0, 72.0, 66.0, 66.0, 60.0, 60.0, 66.0, 60.0, 60.0, 60.0, 54.0, 48.0, 60.0, 54.0, 54.0, 54.0, 54.0, 54.0, 54.0, 60.0, 54.0, 54.0, 60.0, 54.0, 60.0, 54.0, 60.0, 54.0, 54.0, 54.0, 54.0, 60.0, 60.0, 66.0, 66.0, 66.0, 60.0, 72.0, 66.0, 72.0, 72.0, 60.0, 60.0, 54.0, 54.0, 60.0, 54.0, 48.0, 54.0, 60.0, 72.0, 72.0, 60.0, 60.0, 60.0, 60.0, 60.0, 60.0, 60.0, 60.0, 66.0, 54.0, 54.0, 60.0, 60.0, 60.0, 66.0, 66.0, 60.0, 72.0, 66.0, 66.0, 60.0, 66.0, 60.0, 66.0, 60.0, 60.0, 54.0, 60.0, 60.0, 60.0, 60.0, 60.0, 72.0, 84.0, 72.0, 60.0, 72.0, 60.0, 60.0, 60.0, 60.0, 60.0, 60.0, 60.0, 54.0, 54.0, 60.0, 54.0, 60.0, 60.0, 54.0, 54.0, 54.0, 54.0, 54.0, 54.0, 54.0, 60.0, 60.0, 72.0, 60.0, 66.0, 60.0, 60.0, 60.0, 60.0, 60.0, 60.0, 66.0, 60.0, 54.0, 54.0, 54.0, 54.0, 60.0, 54.0, 54.0, 54.0, 48.0, 54.0, 60.0, 48.0, 48.0, 54.0, 54.0, 54.0, 48.0, 60.0, 72.0, 72.0, 60.0, 72.0, 78.0, 72.0, 66.0, 72.0, 66.0, 78.0, 66.0, 66.0, 60.0, 60.0, 60.0, 60.0, 60.0, 60.0, 60.0, 72.0, 60.0, 60.0, 60.0, 48.0, 60.0, 60.0, 60.0, 60.0, 54.0, 66.0, 54.0, 48.0, 54.0, 54.0, 60.0, 66.0, 60.0, 66.0, 60.0, 60.0, 54.0, 60.0, 60.0, 54.0, 60.0, 66.0, 66.0, 54.0, 60.0, 48.0, 54.0, 54.0, 60.0, 72.0, 60.0, 60.0, 72.0, 78.0, 72.0, 60.0, 66.0, 66.0, 78.0, 66.0, 60.0, 60.0, 60.0, 54.0, 60.0, 60.0, 72.0, 60.0, 60.0, 60.0, 60.0, 60.0, 60.0, 60.0, 60.0, 72.0, 60.0, 54.0, 60.0, 60.0, 60.0, 54.0, 60.0, 72.0, 60.0, 60.0, 60.0, 60.0, 60.0, 60.0, 60.0, 66.0, 60.0, 60.0, 54.0, 60.0, 60.0, 60.0, 60.0, 60.0, 60.0, 60.0, 60.0, 60.0, 60.0, 54.0, 60.0, 60.0, 54.0, 60.0, 54.0, 60.0, 60.0, 60.0, 60.0, 60.0, 60.0, 54.0, 60.0, 60.0, 54.0, 60.0, 60.0, 54.0, 54.0, 60.0, 60.0, 54.0, 66.0, 54.0, 54.0, 60.0, 60.0, 66.0, 60.0, 66.0, 54.0, 60.0, 54.0, 60.0, 48.0, 54.0, 60.0, 54.0, 60.0, 54.0, 54.0, 54.0, 54.0, 54.0, 54.0, 54.0, 60.0, 54.0, 60.0, 54.0, 60.0, 54.0, 60.0, 54.0, 60.0, 54.0, 54.0, 54.0, 60.0, 60.0, 60.0, 60.0, 60.0, 54.0, 60.0, 54.0, 54.0, 54.0, 60.0, 60.0, 54.0, 54.0, 54.0, 54.0, 54.0, 54.0, 60.0, 54.0, 60.0, 54.0, 54.0, 60.0, 54.0, 54.0, 54.0, 48.0, 60.0, 60.0, 54.0, 54.0, 54.0, 54.0, 54.0, 54.0, 66.0, 72.0, 66.0, 60.0, 60.0, 60.0, 54.0, 60.0, 54.0, 60.0, 54.0, 54.0, 66.0, 54.0, 48.0, 54.0, 48.0, 54.0, 60.0, 54.0, 54.0, 54.0, 60.0, 60.0, 60.0, 48.0, 54.0, 60.0, 54.0, 54.0, 60.0, 54.0, 60.0, 60.0, 60.0, 66.0, 54.0, 60.0, 60.0, 54.0, 54.0, 54.0, 54.0, 54.0, 54.0, 54.0, 60.0, 48.0, 54.0, 60.0, 60.0, 54.0, 60.0, 54.0, 60.0, 54.0, 60.0, 54.0, 60.0, 54.0, 54.0, 54.0, 54.0, 60.0, 54.0, 54.0, 60.0, 66.0, 54.0, 54.0, 54.0, 60.0, 54.0, 60.0, 60.0, 54.0, 54.0, 54.0, 54.0, 54.0, 60.0, 60.0, 54.0, 54.0, 54.0, 60.0, 54.0, 60.0, 72.0, 60.0, 54.0, 54.0, 54.0, 60.0, 54.0, 60.0, 60.0, 54.0, 48.0, 60.0, 54.0, 54.0, 66.0, 54.0, 54.0, 48.0, 48.0, 54.0, 66.0, 78.0, 72.0, 84.0, 96.0, 84.0, 72.0, 72.0, 60.0, 60.0, 54.0, 66.0, 66.0, 66.0, 78.0, 66.0, 54.0, 54.0, 60.0, 60.0, 72.0, 60.0, 48.0, 54.0, 54.0, 66.0, 60.0, 48.0, 42.0, 54.0, 60.0, 54.0, 54.0, 60.0, 54.0, 60.0, 60.0, 54.0, 66.0, 66.0, 60.0, 54.0, 66.0, 60.0, 60.0, 60.0, 54.0, 60.0, 60.0, 54.0, 54.0, 60.0, 60.0, 60.0, 60.0, 54.0, 66.0, 66.0, 66.0, 66.0, 54.0, 54.0, 60.0, 54.0, 54.0, 54.0, 54.0, 60.0, 60.0, 54.0, 66.0, 54.0, 54.0, 60.0, 54.0, 60.0, 54.0, 54.0, 54.0, 60.0, 60.0, 48.0, 54.0, 54.0, 60.0, 54.0, 60.0, 54.0, 54.0, 54.0, 54.0, 60.0, 54.0, 54.0, 54.0, 60.0, 54.0, 60.0, 54.0, 60.0, 54.0, 54.0, 60.0, 60.0, 54.0, 48.0, 60.0, 60.0, 60.0, 54.0, 54.0, 60.0, 54.0, 54.0, 54.0, 60.0, 54.0, 54.0, 54.0, 60.0, 54.0, 60.0, 54.0, 60.0, 54.0, 54.0, 54.0, 54.0, 54.0, 60.0, 54.0, 60.0, 66.0, 54.0, 60.0, 60.0, 60.0, 54.0, 60.0, 54.0, 54.0, 48.0, 60.0, 54.0, 60.0, 54.0, 60.0, 60.0, 54.0, 54.0, 54.0, 54.0, 54.0, 60.0, 48.0, 54.0, 54.0, 60.0, 54.0, 54.0, 60.0, 54.0, 60.0, 54.0, 60.0, 54.0, 60.0, 54.0, 54.0, 60.0, 54.0, 60.0, 66.0, 54.0, 54.0, 54.0, 60.0, 60.0, 54.0, 60.0, 54.0, 60.0, 60.0, 54.0, 54.0, 48.0, 60.0, 60.0, 54.0, 60.0, 54.0, 60.0, 60.0, 54.0, 48.0, 54.0, 54.0, 54.0, 60.0, 54.0, 60.0, 54.0, 54.0, 60.0, 54.0, 48.0, 60.0, 60.0, 54.0, 54.0, 54.0, 54.0, 48.0, 54.0, 54.0, 48.0, 60.0, 60.0, 54.0, 48.0, 48.0, 54.0, 60.0, 60.0, 54.0, 60.0, 60.0, 54.0, 54.0, 60.0, 60.0, 54.0, 54.0, 60.0, 72.0, 60.0, 54.0, 54.0, 54.0, 54.0, 60.0, 54.0, 60.0, 54.0, 54.0, 54.0, 60.0, 60.0, 54.0, 60.0, 54.0, 54.0, 54.0, 54.0, 60.0, 60.0, 54.0, 60.0, 60.0, 54.0, 66.0, 54.0, 60.0, 54.0, 66.0, 54.0, 48.0, 60.0, 60.0, 54.0, 54.0, 54.0, 60.0, 60.0, 54.0, 60.0, 66.0, 66.0, 66.0, 54.0, 66.0, 54.0, 60.0, 60.0, 54.0, 54.0, 60.0, 60.0, 60.0, 54.0, 54.0, 60.0, 60.0, 54.0, 54.0, 60.0, 54.0, 60.0, 54.0, 66.0, 60.0, 60.0, 54.0, 54.0, 60.0, 66.0, 60.0, 54.0, 60.0, 54.0, 60.0, 54.0, 60.0, 60.0, 54.0, 60.0, 54.0, 60.0, 66.0, 60.0, 60.0, 60.0, 66.0, 60.0, 60.0, 60.0, 54.0, 60.0, 54.0, 60.0, 54.0, 60.0, 54.0, 60.0, 54.0, 66.0, 54.0, 60.0, 60.0, 54.0, 60.0, 54.0, 54.0, 54.0, 60.0, 54.0, 54.0, 60.0, 60.0, 60.0, 66.0, 66.0, 60.0, 60.0, 60.0, 60.0, 54.0, 54.0, 60.0, 54.0, 54.0, 66.0, 54.0, 60.0, 54.0, 60.0, 54.0, 54.0, 54.0, 54.0, 60.0, 54.0, 60.0, 66.0, 60.0, 54.0, 48.0, 60.0, 54.0, 60.0, 60.0, 54.0, 48.0, 48.0, 48.0, 54.0, 48.0, 48.0, 48.0, 54.0, 48.0, 54.0, 48.0, 48.0, 48.0, 54.0, 48.0, 54.0, 54.0, 48.0, 48.0, 54.0, 54.0, 48.0, 48.0, 54.0, 48.0, 54.0, 54.0, 54.0, 54.0, 54.0, 48.0, 48.0, 48.0, 54.0, 54.0, 48.0, 54.0, 54.0, 54.0, 42.0, 54.0, 48.0, 54.0, 48.0, 60.0, 66.0, 54.0, 66.0, 60.0, 54.0, 54.0, 54.0, 66.0, 60.0, 66.0, 60.0, 54.0, 54.0, 54.0, 54.0, 54.0, 48.0, 60.0, 54.0, 54.0, 54.0, 54.0, 54.0, 60.0, 60.0, 54.0, 54.0, 54.0, 48.0, 54.0, 54.0, 54.0, 54.0, 54.0, 60.0, 60.0, 54.0, 54.0, 54.0, 54.0, 54.0, 54.0, 54.0, 54.0, 54.0, 54.0, 48.0, 60.0, 60.0, 54.0, 54.0, 60.0, 60.0, 54.0, 66.0, 78.0, 66.0, 54.0, 60.0, 60.0, 54.0, 60.0, 48.0, 60.0, 54.0, 60.0, 54.0, 66.0, 60.0, 54.0, 54.0, 60.0, 54.0, 60.0, 60.0, 54.0, 60.0, 54.0, 48.0, 54.0, 54.0, 54.0, 54.0, 54.0, 54.0, 66.0, 60.0, 54.0, 60.0, 60.0, 66.0, 54.0, 54.0, 60.0, 54.0, 54.0, 54.0, 54.0, 60.0, 54.0, 54.0, 54.0, 54.0, 54.0, 60.0, 54.0, 54.0, 54.0, 60.0, 48.0, 60.0, 54.0, 60.0, 54.0, 60.0, 54.0, 60.0, 54.0, 60.0, 54.0, 54.0, 60.0, 54.0, 54.0, 60.0, 54.0, 54.0, 60.0, 54.0, 54.0, 54.0, 54.0, 54.0, 54.0, 54.0, 54.0, 54.0, 66.0, 54.0, 54.0, 54.0, 54.0, 54.0, 54.0, 54.0, 54.0, 54.0, 54.0, 54.0, 54.0, 54.0, 60.0, 54.0, 54.0, 54.0, 54.0, 54.0, 54.0, 54.0, 60.0, 54.0, 54.0, 54.0, 54.0, 48.0, 48.0, 48.0, 54.0, 54.0, 60.0, 48.0, 54.0, 54.0, 54.0, 54.0, 54.0, 54.0, 60.0, 54.0, 54.0, 54.0, 54.0, 54.0, 60.0, 54.0, 48.0, 60.0, 48.0, 60.0, 48.0, 54.0, 54.0, 66.0, 54.0, 54.0, 48.0, 48.0, 54.0, 66.0, 60.0, 72.0, 60.0, 54.0, 66.0, 54.0, 54.0, 54.0, 60.0, 54.0, 54.0, 48.0, 54.0, 54.0, 54.0, 54.0, 48.0, 54.0, 54.0, 54.0, 48.0, 54.0, 54.0, 54.0, 54.0, 54.0, 60.0, 60.0, 54.0, 48.0, 54.0, 54.0, 54.0, 54.0, 54.0, 48.0, 48.0, 54.0, 54.0, 54.0, 42.0, 42.0, 48.0, 54.0, 54.0, 54.0, 48.0, 60.0, 60.0, 60.0, 54.0, 54.0, 54.0, 54.0, 48.0, 54.0, 54.0, 54.0, 60.0, 54.0, 48.0, 48.0, 48.0, 54.0, 48.0, 54.0, 54.0, 60.0, 54.0, 54.0, 60.0, 60.0, 54.0, 66.0, 60.0, 60.0, 72.0, 66.0, 78.0, 72.0, 66.0, 60.0, 72.0, 60.0, 60.0, 66.0, 60.0, 60.0, 72.0, 60.0, 48.0, 60.0, 72.0, 60.0, 54.0, 66.0, 66.0, 66.0, 60.0, 48.0, 54.0, 54.0, 48.0, 60.0, 66.0, 78.0, 72.0, 66.0, 66.0, 66.0, 60.0, 54.0, 60.0, 66.0, 66.0, 66.0, 60.0, 60.0, 60.0, 60.0, 66.0, 72.0, 66.0, 66.0, 60.0, 66.0, 54.0, 54.0, 66.0, 54.0, 54.0, 54.0, 54.0, 54.0, 48.0, 54.0, 60.0, 54.0, 66.0, 54.0, 48.0, 60.0, 60.0, 66.0, 60.0, 54.0, 66.0, 54.0, 54.0, 60.0, 54.0, 60.0, 60.0, 54.0, 54.0, 54.0, 54.0, 66.0, 66.0, 78.0, 66.0, 66.0, 66.0, 60.0, 66.0, 60.0, 60.0, 66.0, 66.0, 78.0, 78.0, 66.0, 66.0, 66.0, 60.0, 66.0, 78.0, 66.0, 72.0, 60.0, 66.0, 60.0, 60.0, 60.0, 60.0, 60.0, 54.0, 60.0, 54.0, 60.0, 60.0, 60.0, 66.0, 54.0, 60.0, 60.0, 60.0, 54.0, 54.0, 54.0, 54.0, 66.0, 60.0, 66.0, 66.0, 78.0, 72.0, 66.0, 60.0, 60.0, 54.0, 54.0, 60.0, 60.0, 54.0, 54.0, 54.0, 54.0, 54.0, 54.0, 54.0, 60.0, 54.0, 60.0, 54.0, 60.0, 48.0, 54.0, 54.0, 48.0, 48.0, 48.0, 48.0, 60.0, 48.0, 48.0, 54.0, 48.0, 54.0, 48.0, 54.0, 48.0, 48.0, 48.0, 48.0, 54.0, 60.0, 48.0, 48.0, 48.0, 48.0, 48.0, 42.0, 54.0, 42.0, 48.0, 48.0, 48.0, 48.0, 48.0, 48.0, 48.0, 48.0, 48.0, 48.0, 48.0, 54.0, 48.0, 48.0, 48.0, 48.0, 54.0, 48.0, 54.0, 48.0, 48.0, 48.0, 48.0, 48.0, 48.0, 48.0, 48.0, 48.0, 48.0, 48.0, 48.0, 48.0, 48.0, 54.0, 48.0, 48.0, 48.0, 54.0, 48.0, 48.0, 48.0, 48.0, 48.0, 54.0, 48.0, 54.0, 48.0, 48.0, 48.0, 48.0, 54.0, 54.0, 66.0, 78.0, 78.0, 78.0, 66.0, 54.0, 60.0, 60.0, 60.0, 72.0, 60.0, 48.0, 54.0, 48.0, 54.0, 48.0, 48.0, 42.0, 54.0, 48.0, 60.0, 54.0, 54.0, 66.0, 54.0, 54.0, 66.0, 60.0, 54.0, 66.0, 60.0, 60.0, 66.0, 54.0, 60.0, 66.0, 60.0, 60.0, 54.0, 54.0, 60.0, 54.0, 66.0, 72.0, 60.0, 54.0, 48.0, 60.0, 54.0, 54.0, 48.0, 54.0, 54.0, 54.0, 54.0, 54.0, 60.0, 48.0, 48.0, 60.0, 72.0, 60.0, 54.0, 54.0, 48.0, 48.0, 48.0, 48.0, 54.0, 48.0, 48.0, 48.0, 48.0, 48.0, 54.0, 54.0, 54.0, 54.0, 66.0, 78.0, 84.0, 72.0, 60.0, 48.0, 42.0, 48.0, 42.0, 48.0, 42.0, 54.0, 48.0, 48.0, 48.0, 42.0, 48.0, 48.0, 48.0, 48.0, 48.0, 36.0, 42.0, 42.0, 42.0, 48.0, 42.0, 48.0, 48.0, 42.0, 42.0, 48.0, 48.0, 42.0, 48.0, 48.0, 48.0, 48.0, 48.0, 42.0, 48.0, 42.0, 42.0, 48.0, 54.0, 48.0, 42.0, 42.0, 48.0, 42.0, 42.0, 42.0, 48.0, 48.0, 54.0, 48.0, 48.0, 42.0, 48.0, 60.0, 48.0, 54.0, 66.0, 66.0, 54.0, 42.0, 48.0, 54.0, 48.0, 60.0, 48.0, 48.0, 42.0, 42.0, 54.0, 48.0, 48.0, 48.0, 42.0, 42.0, 42.0, 48.0, 42.0, 48.0, 48.0, 36.0, 42.0, 42.0, 42.0, 48.0, 48.0, 48.0, 48.0, 42.0, 48.0, 42.0, 42.0, 36.0, 48.0, 42.0, 48.0, 54.0, 54.0, 48.0, 54.0, 48.0, 48.0, 42.0, 48.0, 42.0, 42.0, 42.0, 48.0, 48.0, 42.0, 42.0, 42.0, 42.0, 42.0, 42.0, 42.0, 42.0, 42.0, 42.0, 48.0, 48.0, 42.0, 48.0, 48.0, 48.0, 48.0, 36.0, 48.0, 48.0, 42.0, 42.0, 48.0, 48.0, 48.0, 48.0, 48.0, 48.0, 42.0, 54.0, 66.0, 54.0, 48.0, 42.0, 42.0, 48.0, 48.0, 42.0, 48.0, 42.0, 48.0, 48.0, 48.0, 48.0, 48.0, 42.0, 48.0, 48.0, 48.0, 42.0, 48.0, 42.0, 48.0, 54.0, 42.0, 42.0, 48.0, 48.0, 48.0, 48.0, 42.0, 48.0, 48.0, 42.0, 42.0, 42.0, 42.0, 42.0, 48.0, 48.0, 48.0, 48.0, 42.0, 42.0, 48.0, 48.0, 48.0, 42.0, 42.0, 48.0, 48.0, 48.0, 42.0, 48.0, 42.0, 42.0, 48.0, 48.0, 48.0, 48.0, 42.0, 48.0, 42.0, 48.0, 42.0, 42.0, 48.0, 48.0, 42.0, 42.0, 48.0, 42.0, 42.0, 42.0, 48.0, 42.0, 48.0, 48.0, 48.0, 48.0, 42.0, 48.0, 42.0, 48.0, 48.0, 48.0, 42.0, 48.0, 48.0, 42.0, 48.0, 42.0, 48.0, 42.0, 48.0, 48.0, 42.0, 42.0, 48.0, 42.0, 48.0, 36.0, 48.0, 42.0, 48.0, 42.0, 42.0, 48.0, 42.0, 48.0, 42.0, 48.0, 48.0, 42.0, 42.0, 48.0, 42.0, 48.0, 48.0, 42.0, 48.0, 42.0, 48.0, 48.0, 42.0, 48.0, 48.0, 42.0, 48.0, 48.0, 42.0, 48.0, 42.0, 48.0, 48.0, 48.0, 48.0, 42.0, 48.0, 48.0, 42.0, 48.0, 48.0, 42.0, 48.0, 42.0, 48.0, 42.0, 48.0, 48.0, 48.0, 48.0, 42.0, 48.0, 48.0, 42.0, 48.0, 48.0, 42.0, 48.0, 48.0, 42.0, 48.0, 48.0, 42.0, 48.0, 42.0, 48.0, 42.0, 42.0, 48.0, 42.0, 48.0, 48.0, 42.0, 42.0, 42.0, 42.0, 48.0, 48.0, 42.0, 48.0, 48.0, 42.0, 48.0, 42.0, 48.0, 42.0, 48.0, 48.0, 42.0, 48.0, 42.0, 48.0, 48.0, 42.0, 48.0, 48.0, 42.0, 48.0, 42.0, 48.0, 42.0, 48.0, 48.0, 42.0, 48.0, 48.0, 42.0, 48.0, 48.0, 42.0, 48.0, 48.0, 48.0, 48.0, 48.0, 42.0, 48.0, 48.0, 48.0, 42.0, 48.0, 48.0, 42.0, 48.0, 48.0, 48.0, 42.0, 48.0, 48.0, 48.0, 42.0, 48.0, 48.0, 48.0, 42.0, 48.0, 42.0, 48.0, 48.0, 42.0, 48.0, 42.0, 48.0, 48.0, 48.0, 48.0, 42.0, 48.0, 42.0, 48.0, 42.0, 48.0, 48.0, 48.0, 42.0, 48.0, 42.0, 48.0, 48.0, 48.0, 42.0, 48.0, 42.0, 42.0, 48.0, 42.0, 48.0, 48.0, 48.0, 48.0, 42.0, 48.0, 42.0, 42.0, 42.0, 48.0, 42.0, 48.0, 42.0, 48.0, 48.0, 42.0, 48.0, 48.0, 42.0, 48.0, 48.0, 42.0, 48.0, 48.0, 42.0, 42.0, 48.0, 42.0, 48.0, 48.0, 48.0, 48.0, 48.0, 48.0, 48.0, 42.0, 48.0, 48.0, 42.0, 48.0, 48.0, 36.0, 42.0, 48.0, 42.0, 48.0, 42.0, 48.0, 48.0, 48.0, 48.0, 42.0, 48.0, 48.0, 42.0, 48.0, 48.0, 42.0, 42.0, 48.0, 48.0, 48.0, 48.0, 42.0, 48.0, 48.0, 42.0, 48.0, 48.0, 42.0, 42.0, 48.0, 48.0, 42.0, 48.0, 42.0, 48.0, 48.0, 48.0, 42.0, 42.0, 48.0, 48.0, 42.0, 42.0, 48.0, 48.0, 42.0, 48.0, 48.0, 42.0, 48.0, 48.0, 48.0, 42.0, 48.0, 42.0, 48.0, 48.0, 42.0, 48.0, 48.0, 48.0, 42.0, 48.0, 48.0, 42.0, 48.0, 42.0, 48.0, 42.0, 48.0, 42.0, 48.0, 48.0, 48.0, 48.0, 42.0, 48.0, 48.0, 42.0, 48.0, 48.0, 48.0, 48.0, 48.0, 42.0, 48.0, 48.0, 48.0, 42.0, 48.0, 36.0, 42.0, 48.0, 42.0, 48.0, 48.0, 48.0, 48.0, 48.0, 48.0, 54.0, 42.0, 48.0, 48.0, 48.0, 48.0, 48.0, 48.0, 48.0, 48.0, 48.0, 48.0, 48.0, 48.0, 48.0, 42.0, 42.0, 48.0, 42.0, 48.0, 48.0, 48.0, 48.0, 42.0, 48.0, 48.0, 42.0, 48.0, 48.0, 48.0, 48.0, 42.0, 48.0, 48.0, 48.0, 48.0, 48.0, 48.0, 42.0, 48.0, 48.0, 48.0, 48.0, 42.0, 48.0, 48.0, 42.0, 48.0, 48.0, 48.0, 48.0, 48.0, 48.0, 42.0, 48.0, 48.0, 48.0, 48.0, 42.0, 42.0, 48.0, 42.0, 48.0, 48.0, 48.0, 48.0, 48.0, 48.0, 48.0, 48.0, 48.0, 42.0, 42.0, 48.0, 42.0, 48.0, 42.0, 48.0, 42.0, 48.0, 48.0, 48.0, 48.0, 42.0, 48.0, 48.0, 48.0, 42.0, 48.0, 42.0, 48.0, 48.0, 42.0, 48.0, 48.0, 42.0, 42.0, 48.0, 48.0, 42.0, 54.0, 48.0, 42.0, 54.0, 48.0, 42.0, 48.0, 48.0, 48.0, 48.0, 42.0, 48.0, 48.0, 48.0, 48.0, 48.0, 48.0, 42.0, 42.0, 48.0, 54.0, 42.0, 42.0, 48.0, 54.0, 42.0, 42.0, 48.0, 48.0, 48.0, 48.0, 54.0, 54.0, 48.0, 48.0, 48.0, 42.0, 48.0, 48.0, 48.0, 48.0, 54.0, 48.0, 48.0, 60.0, 54.0, 54.0, 54.0, 54.0, 42.0, 54.0, 42.0, 54.0, 48.0, 42.0, 48.0, 48.0, 48.0, 48.0, 48.0, 48.0, 54.0, 48.0, 48.0, 54.0, 48.0, 54.0, 48.0, 54.0, 48.0, 54.0, 54.0, 48.0, 54.0, 54.0, 54.0, 48.0, 54.0, 54.0, 54.0, 48.0, 54.0, 54.0, 48.0, 54.0, 54.0, 54.0, 48.0, 54.0, 54.0, 48.0, 54.0, 54.0, 48.0, 54.0, 54.0, 48.0, 60.0, 54.0, 54.0, 54.0, 48.0, 48.0, 54.0, 48.0, 54.0, 54.0, 54.0, 54.0, 42.0, 54.0, 48.0, 54.0, 54.0, 54.0, 54.0, 60.0, 48.0, 48.0, 48.0, 54.0, 54.0, 48.0, 54.0, 54.0, 48.0, 54.0, 48.0, 54.0, 54.0, 48.0, 54.0, 54.0, 48.0, 54.0, 48.0, 54.0, 48.0, 54.0, 54.0, 48.0, 54.0, 54.0, 48.0, 60.0, 48.0, 54.0, 48.0, 42.0, 54.0, 48.0, 42.0, 48.0, 54.0, 48.0, 54.0, 54.0, 48.0, 54.0, 54.0, 48.0, 48.0, 54.0, 54.0, 54.0, 48.0, 54.0, 48.0, 54.0, 54.0, 54.0, 48.0, 54.0, 54.0, 48.0, 54.0, 54.0, 54.0, 48.0, 54.0, 48.0, 60.0, 48.0, 60.0, 48.0, 48.0, 42.0, 48.0, 48.0, 54.0, 48.0, 48.0, 54.0, 48.0, 54.0, 42.0, 54.0, 48.0, 54.0, 48.0, 54.0, 48.0, 54.0, 48.0, 54.0, 48.0, 48.0, 54.0, 48.0, 54.0, 48.0, 48.0, 54.0, 48.0, 60.0, 48.0, 48.0, 48.0, 54.0, 54.0, 48.0, 48.0, 54.0, 48.0, 54.0, 48.0, 48.0, 54.0, 48.0, 48.0, 48.0, 48.0, 54.0, 54.0, 48.0, 48.0, 54.0, 48.0, 54.0, 48.0, 54.0, 48.0, 54.0, 54.0, 54.0, 48.0, 48.0, 54.0, 48.0, 48.0, 54.0, 48.0, 54.0, 54.0, 48.0, 48.0, 54.0, 48.0, 48.0, 48.0, 48.0, 54.0, 54.0, 42.0, 48.0, 48.0, 48.0, 54.0, 48.0, 48.0, 54.0, 48.0, 54.0, 48.0, 48.0, 54.0, 48.0, 48.0, 54.0, 48.0, 48.0, 54.0, 48.0, 48.0, 54.0, 48.0, 54.0, 48.0, 54.0, 48.0, 48.0, 54.0, 48.0, 48.0, 54.0, 48.0, 60.0, 60.0, 48.0, 42.0, 42.0, 48.0, 48.0, 48.0, 48.0, 48.0, 48.0, 54.0, 48.0, 48.0, 48.0, 48.0, 54.0, 48.0, 48.0, 54.0, 48.0, 54.0, 42.0, 42.0, 54.0, 48.0, 48.0, 48.0, 48.0, 48.0, 48.0, 48.0, 54.0, 48.0, 48.0, 48.0, 54.0, 48.0, 48.0, 54.0, 48.0, 48.0, 54.0, 48.0, 48.0, 54.0, 48.0, 48.0, 48.0, 54.0, 48.0, 54.0, 48.0, 48.0, 48.0, 48.0, 54.0, 54.0, 48.0, 48.0, 54.0, 48.0, 48.0, 48.0, 48.0, 42.0, 48.0, 54.0, 48.0, 48.0, 48.0, 48.0, 48.0, 54.0, 48.0, 54.0, 48.0, 42.0, 42.0, 48.0, 48.0, 48.0, 54.0, 48.0, 48.0, 48.0, 48.0, 54.0, 48.0, 48.0, 54.0, 48.0, 48.0, 48.0, 54.0, 48.0, 48.0, 48.0, 48.0, 48.0, 48.0, 48.0, 48.0, 48.0, 48.0, 48.0, 54.0, 48.0, 48.0, 54.0, 48.0, 48.0, 48.0, 48.0, 48.0, 48.0, 48.0, 48.0, 48.0, 48.0, 54.0, 48.0, 48.0, 48.0, 42.0, 54.0, 48.0, 48.0, 54.0, 48.0, 48.0, 48.0, 54.0, 48.0, 54.0, 48.0, 48.0, 54.0, 48.0, 48.0, 48.0, 54.0, 42.0, 48.0, 54.0, 48.0, 48.0, 48.0, 48.0, 54.0, 48.0, 54.0, 48.0, 48.0, 48.0, 48.0, 54.0, 60.0, 60.0, 66.0, 54.0, 42.0, 48.0, 42.0, 42.0, 48.0, 48.0, 48.0, 48.0, 48.0, 48.0, 42.0, 48.0, 48.0, 48.0, 48.0, 42.0, 48.0, 48.0, 42.0, 48.0, 48.0, 48.0, 42.0, 42.0, 48.0, 48.0, 42.0, 48.0, 48.0, 48.0, 48.0, 48.0, 48.0, 42.0, 48.0, 48.0, 48.0, 42.0, 48.0, 48.0, 48.0, 48.0, 42.0, 48.0, 48.0, 48.0, 48.0, 48.0, 48.0, 48.0, 42.0, 48.0, 42.0, 48.0, 48.0, 48.0, 48.0, 48.0, 48.0, 42.0, 48.0, 48.0, 48.0, 48.0, 48.0, 48.0, 48.0, 48.0, 48.0, 48.0, 48.0, 48.0, 42.0, 48.0, 48.0, 48.0, 48.0, 48.0, 48.0, 48.0, 48.0, 48.0, 48.0, 48.0, 48.0, 42.0, 48.0, 48.0, 48.0, 48.0, 42.0, 54.0, 42.0, 54.0, 48.0, 42.0, 48.0, 48.0, 48.0, 48.0, 48.0, 48.0, 48.0, 48.0, 48.0, 48.0, 48.0, 48.0, 42.0, 54.0, 48.0, 48.0, 48.0, 42.0, 48.0, 54.0, 48.0, 48.0, 48.0, 42.0, 48.0, 48.0, 48.0, 48.0, 48.0, 48.0, 48.0, 48.0, 48.0, 48.0, 48.0, 48.0, 48.0, 48.0, 48.0, 48.0, 48.0, 48.0, 48.0, 48.0, 48.0, 48.0, 48.0, 48.0, 48.0, 48.0, 48.0, 48.0, 54.0, 42.0, 48.0, 48.0, 48.0, 48.0, 48.0, 48.0, 48.0, 48.0, 42.0, 48.0, 48.0, 48.0, 48.0, 54.0, 42.0, 48.0, 54.0, 48.0, 42.0, 48.0, 48.0, 54.0, 48.0, 48.0, 54.0, 54.0, 48.0, 48.0, 48.0, 48.0, 48.0, 42.0, 48.0, 48.0, 48.0, 48.0, 48.0, 48.0, 48.0, 48.0, 48.0, 48.0, 48.0, 48.0, 48.0, 48.0, 48.0, 48.0, 48.0, 48.0, 48.0, 48.0, 48.0, 48.0, 42.0, 54.0, 48.0, 48.0, 48.0, 42.0, 48.0, 48.0, 48.0, 48.0, 54.0, 48.0, 42.0, 48.0, 48.0, 48.0, 48.0, 48.0, 48.0, 48.0, 48.0, 48.0, 48.0, 48.0, 48.0, 48.0, 48.0, 42.0, 48.0, 54.0, 48.0, 48.0, 42.0, 48.0, 48.0, 48.0, 48.0, 48.0, 48.0, 48.0, 48.0, 48.0, 42.0, 48.0, 48.0, 54.0, 54.0, 60.0, 54.0, 54.0, 48.0, 48.0, 36.0, 48.0, 42.0, 48.0, 54.0, 42.0, 48.0, 42.0, 48.0, 42.0, 48.0, 48.0, 36.0, 48.0, 48.0, 42.0, 42.0, 42.0, 48.0, 42.0, 48.0, 48.0, 48.0, 48.0, 48.0, 48.0, 48.0, 48.0, 42.0, 42.0, 48.0, 48.0, 48.0, 42.0, 54.0, 48.0, 48.0, 48.0, 48.0, 48.0, 48.0, 54.0, 54.0, 42.0, 48.0, 42.0, 48.0, 48.0, 48.0, 42.0, 48.0, 48.0, 48.0, 48.0, 48.0, 54.0, 48.0, 48.0, 48.0, 42.0, 48.0, 48.0, 48.0, 48.0, 48.0, 42.0, 48.0, 54.0, 48.0, 48.0, 54.0, 48.0, 48.0, 54.0, 48.0, 48.0, 54.0, 48.0, 54.0, 54.0, 48.0, 48.0, 48.0, 48.0, 48.0, 48.0, 54.0, 48.0, 48.0, 48.0, 54.0, 48.0, 54.0, 54.0, 48.0, 54.0, 48.0, 48.0, 54.0, 48.0, 48.0, 48.0, 48.0, 54.0, 48.0, 54.0, 48.0, 48.0, 54.0, 48.0, 54.0, 54.0, 48.0, 54.0, 48.0, 48.0, 54.0, 54.0, 42.0, 48.0, 48.0, 54.0, 48.0, 48.0, 54.0, 48.0, 54.0, 48.0, 48.0, 54.0, 48.0, 42.0, 48.0, 48.0, 48.0, 48.0, 54.0, 48.0, 48.0, 54.0, 54.0, 54.0, 60.0, 48.0, 42.0, 48.0, 48.0, 48.0, 48.0, 48.0, 54.0, 48.0, 54.0, 48.0, 60.0, 54.0, 42.0, 48.0, 48.0, 48.0, 48.0, 54.0, 48.0, 48.0, 54.0, 48.0, 54.0, 48.0, 48.0, 54.0, 48.0, 54.0, 48.0, 54.0, 48.0, 48.0, 48.0, 48.0, 48.0, 48.0, 48.0, 54.0, 48.0, 54.0, 48.0, 54.0, 54.0, 42.0, 42.0, 48.0, 54.0, 48.0, 54.0, 54.0, 54.0, 42.0, 48.0, 48.0, 48.0, 48.0, 54.0, 48.0, 54.0, 48.0, 48.0, 54.0, 42.0, 48.0, 48.0, 48.0, 54.0, 48.0, 54.0, 48.0, 48.0, 54.0, 48.0, 48.0, 54.0, 48.0, 48.0, 48.0, 48.0, 48.0, 48.0, 48.0, 48.0, 48.0, 48.0, 48.0, 54.0, 48.0, 48.0, 54.0, 54.0, 48.0, 48.0, 48.0, 48.0, 48.0, 48.0, 54.0, 48.0, 54.0, 54.0, 48.0, 48.0, 48.0, 54.0, 48.0, 48.0, 48.0, 54.0, 48.0, 48.0, 54.0, 48.0, 54.0, 48.0, 48.0, 48.0, 54.0, 48.0, 48.0, 48.0, 54.0, 48.0, 54.0, 54.0, 48.0, 48.0, 54.0, 54.0, 48.0, 48.0, 48.0, 54.0, 48.0, 48.0, 54.0, 48.0, 54.0, 54.0, 48.0, 54.0, 48.0, 54.0, 48.0, 48.0, 54.0, 48.0, 48.0, 48.0, 48.0, 54.0, 48.0, 48.0, 54.0, 48.0, 48.0, 54.0, 48.0, 54.0, 48.0, 48.0, 48.0, 48.0, 54.0, 48.0, 48.0, 48.0, 48.0, 54.0, 54.0, 42.0, 42.0, 48.0, 48.0, 48.0, 42.0, 48.0, 54.0, 48.0, 48.0, 48.0, 48.0, 48.0, 48.0, 54.0, 48.0, 48.0, 48.0, 48.0, 54.0, 42.0, 42.0, 42.0, 54.0, 48.0, 48.0, 48.0, 48.0, 54.0, 48.0, 48.0, 54.0, 48.0, 48.0, 54.0, 48.0, 48.0, 54.0, 48.0, 48.0, 54.0, 48.0, 54.0, 54.0, 48.0, 54.0, 54.0, 48.0, 48.0, 54.0, 48.0, 54.0, 54.0, 48.0, 54.0, 48.0, 48.0, 48.0, 54.0, 48.0, 48.0, 48.0, 54.0, 48.0, 48.0, 54.0, 54.0, 42.0, 42.0, 48.0, 48.0, 48.0, 42.0, 48.0, 48.0, 48.0, 54.0, 48.0, 48.0, 42.0, 48.0, 54.0, 48.0, 48.0, 54.0, 60.0, 48.0, 42.0, 42.0, 48.0, 48.0, 48.0, 48.0, 48.0, 48.0, 48.0, 48.0, 48.0, 48.0, 48.0, 54.0, 42.0, 48.0, 48.0, 42.0, 48.0, 48.0, 48.0, 48.0, 48.0, 48.0, 48.0, 48.0, 54.0, 42.0, 48.0, 54.0, 48.0, 48.0, 48.0, 54.0, 54.0, 42.0, 54.0, 48.0, 48.0, 48.0, 42.0, 54.0, 48.0, 48.0, 42.0, 48.0, 42.0, 48.0, 48.0, 48.0, 54.0, 48.0, 48.0, 42.0, 54.0, 48.0, 48.0, 48.0, 48.0, 48.0, 48.0, 42.0, 48.0, 48.0, 54.0, 48.0, 48.0, 42.0, 48.0, 54.0, 54.0, 48.0, 42.0, 42.0, 42.0, 48.0, 48.0, 48.0, 48.0, 48.0, 48.0, 54.0, 48.0, 48.0, 48.0, 54.0, 48.0, 48.0, 48.0, 54.0, 48.0, 48.0, 48.0, 54.0, 48.0, 42.0, 48.0, 36.0, 48.0, 48.0, 42.0, 48.0, 48.0, 42.0, 42.0, 48.0, 48.0, 42.0, 48.0, 48.0, 48.0, 48.0, 48.0, 48.0, 54.0, 42.0, 42.0, 48.0, 48.0, 48.0, 48.0, 48.0, 54.0, 48.0, 48.0, 48.0, 48.0, 48.0, 42.0, 48.0, 48.0, 54.0, 48.0, 48.0, 48.0, 48.0, 48.0, 48.0, 54.0, 48.0, 48.0, 48.0, 48.0, 48.0, 54.0, 42.0, 42.0, 48.0, 48.0, 48.0, 54.0, 48.0, 48.0, 48.0, 48.0, 48.0, 48.0, 48.0, 48.0, 48.0, 48.0, 54.0, 48.0, 48.0, 48.0, 48.0, 48.0, 48.0, 54.0, 48.0, 48.0, 48.0, 48.0, 48.0, 48.0, 48.0, 60.0, 60.0, 48.0, 42.0, 42.0, 42.0, 48.0, 48.0, 42.0, 48.0, 48.0, 48.0, 48.0, 48.0, 48.0, 48.0, 48.0, 42.0, 54.0, 48.0, 48.0, 42.0, 48.0, 42.0, 48.0, 48.0, 48.0, 48.0, 48.0, 42.0, 48.0, 48.0, 48.0, 48.0, 48.0, 48.0, 48.0, 48.0, 48.0, 48.0, 48.0, 48.0, 42.0, 48.0, 48.0, 48.0, 48.0, 42.0, 48.0, 48.0, 48.0, 48.0, 48.0, 48.0, 48.0, 48.0, 48.0, 48.0, 48.0, 54.0, 42.0, 42.0, 48.0, 48.0, 48.0, 48.0, 48.0, 48.0, 48.0, 48.0, 48.0, 48.0, 42.0, 48.0, 48.0, 48.0, 48.0, 48.0, 48.0, 48.0, 48.0, 48.0, 48.0, 48.0, 48.0, 48.0, 48.0, 48.0, 48.0, 48.0, 48.0, 48.0, 48.0, 36.0, 48.0, 42.0, 48.0, 48.0, 48.0, 48.0, 48.0, 48.0, 42.0, 48.0, 48.0, 48.0, 48.0, 48.0, 48.0, 48.0, 48.0, 42.0, 48.0, 48.0, 48.0, 48.0, 48.0, 42.0, 42.0, 42.0, 48.0, 48.0, 48.0, 48.0, 48.0, 42.0, 48.0, 48.0, 48.0, 48.0, 48.0, 48.0, 48.0, 48.0, 48.0, 48.0, 48.0, 48.0, 48.0, 48.0, 48.0, 48.0, 48.0, 48.0, 48.0, 48.0, 42.0, 42.0, 42.0, 54.0, 48.0, 48.0, 54.0, 54.0, 60.0, 60.0, 54.0, 42.0, 54.0, 48.0, 42.0, 42.0, 48.0, 48.0, 48.0, 48.0, 42.0, 48.0, 48.0, 48.0, 48.0, 48.0, 48.0, 54.0, 48.0, 42.0, 48.0, 54.0, 42.0, 48.0, 48.0, 48.0, 42.0, 42.0, 48.0, 48.0, 48.0, 42.0, 48.0, 48.0, 42.0, 48.0, 48.0, 48.0, 48.0, 54.0, 48.0, 48.0, 48.0, 48.0, 48.0, 48.0, 48.0, 48.0, 54.0, 48.0, 48.0, 54.0, 48.0, 48.0, 54.0, 60.0, 60.0, 54.0, 42.0, 54.0, 48.0, 48.0, 36.0, 48.0, 48.0, 48.0, 42.0, 54.0, 48.0, 48.0, 48.0, 48.0, 48.0, 48.0, 48.0, 42.0, 54.0, 48.0, 48.0, 48.0, 48.0, 54.0, 48.0, 54.0, 48.0, 54.0, 48.0, 48.0, 48.0, 54.0, 48.0, 54.0, 48.0, 54.0, 42.0, 42.0, 48.0, 48.0, 48.0, 48.0, 48.0, 48.0, 54.0, 48.0, 48.0, 48.0, 48.0, 48.0, 48.0, 54.0, 48.0, 48.0, 48.0, 48.0, 54.0, 48.0, 48.0, 54.0, 48.0, 54.0, 48.0, 48.0, 54.0, 48.0, 54.0, 54.0, 48.0, 54.0, 54.0, 54.0, 48.0, 48.0, 48.0, 48.0, 48.0, 48.0, 48.0, 48.0, 48.0, 54.0, 42.0, 48.0, 42.0, 48.0, 48.0, 48.0, 48.0, 48.0, 54.0, 54.0, 48.0, 48.0, 48.0, 48.0, 48.0, 54.0, 48.0, 54.0, 48.0, 48.0, 48.0, 48.0, 48.0, 54.0, 54.0, 48.0, 48.0, 48.0, 54.0, 48.0, 48.0, 42.0, 54.0, 48.0, 48.0, 54.0, 54.0, 60.0, 48.0, 54.0, 48.0, 48.0, 48.0, 48.0, 48.0, 48.0, 48.0, 48.0, 48.0, 48.0, 48.0, 48.0, 48.0, 48.0, 48.0, 54.0, 48.0, 54.0, 48.0, 48.0, 54.0, 48.0, 54.0, 48.0, 48.0, 54.0, 48.0, 54.0, 54.0, 54.0, 48.0, 54.0, 48.0, 42.0, 48.0, 48.0, 48.0, 54.0, 48.0, 54.0, 48.0, 48.0, 48.0, 54.0, 48.0, 54.0, 48.0, 48.0, 48.0, 48.0, 48.0, 48.0, 48.0, 54.0, 48.0, 48.0, 54.0, 48.0, 48.0, 48.0, 48.0, 48.0, 54.0, 48.0, 48.0, 48.0, 48.0, 48.0, 48.0, 48.0, 48.0, 48.0, 48.0, 48.0, 48.0, 48.0, 48.0, 48.0, 48.0, 54.0, 48.0, 48.0, 54.0, 54.0, 48.0, 48.0, 48.0, 48.0, 48.0, 48.0, 54.0, 48.0, 48.0, 48.0, 48.0, 42.0, 48.0, 48.0, 48.0, 60.0, 48.0, 48.0, 54.0, 42.0, 42.0, 48.0, 42.0, 54.0, 54.0, 48.0, 48.0, 54.0, 42.0, 48.0, 48.0, 42.0, 48.0, 42.0, 48.0, 48.0, 54.0, 48.0, 48.0, 54.0, 48.0, 48.0, 42.0, 48.0, 54.0, 42.0, 48.0, 54.0, 54.0, 48.0, 42.0, 42.0, 42.0, 48.0, 48.0, 48.0, 42.0, 48.0, 48.0, 42.0, 48.0, 42.0, 54.0, 48.0, 42.0, 48.0, 48.0, 48.0, 48.0, 48.0, 48.0, 48.0, 48.0, 48.0, 48.0, 48.0, 48.0, 48.0, 48.0, 48.0, 48.0, 48.0, 42.0, 48.0, 48.0, 48.0, 48.0, 48.0, 48.0, 48.0, 48.0, 42.0, 48.0, 48.0, 48.0, 48.0, 48.0, 42.0, 48.0, 48.0, 48.0, 48.0, 48.0, 42.0, 48.0, 48.0, 48.0, 48.0, 48.0, 48.0, 42.0, 48.0, 48.0, 48.0, 48.0, 42.0, 48.0, 48.0, 42.0, 48.0, 48.0, 48.0, 48.0, 42.0, 48.0, 48.0, 48.0, 48.0, 48.0, 48.0, 42.0, 48.0, 48.0, 48.0, 42.0, 48.0, 48.0, 48.0, 48.0, 42.0, 54.0, 42.0, 48.0, 48.0, 48.0, 48.0, 42.0, 48.0, 48.0, 48.0, 48.0, 48.0, 48.0, 48.0, 48.0, 48.0, 36.0, 48.0, 42.0, 48.0, 48.0, 48.0, 48.0, 54.0, 42.0, 48.0, 42.0, 48.0, 42.0, 48.0, 42.0, 48.0, 48.0, 48.0, 48.0, 42.0, 42.0, 42.0, 48.0, 42.0, 48.0, 48.0, 48.0, 48.0, 48.0, 48.0, 48.0, 42.0, 48.0, 42.0, 48.0, 48.0, 48.0, 48.0, 42.0, 48.0, 48.0, 48.0, 48.0, 42.0, 48.0, 48.0, 42.0, 48.0, 42.0, 42.0, 48.0, 48.0, 42.0, 54.0, 48.0, 42.0, 36.0, 42.0, 48.0, 42.0, 48.0, 42.0, 48.0, 48.0, 42.0, 48.0, 42.0, 48.0, 36.0, 48.0, 42.0, 48.0, 42.0, 48.0, 48.0, 42.0, 42.0, 48.0, 48.0, 42.0, 48.0, 48.0, 48.0, 48.0, 48.0, 42.0, 48.0, 48.0, 42.0, 42.0, 48.0, 48.0, 48.0, 48.0, 42.0, 42.0, 48.0, 54.0, 42.0, 42.0, 42.0, 42.0, 48.0, 42.0, 48.0, 42.0, 48.0, 42.0, 42.0, 42.0, 42.0, 48.0, 42.0, 48.0, 42.0, 42.0, 48.0, 42.0, 48.0, 42.0, 48.0, 42.0, 48.0, 48.0, 36.0, 42.0, 54.0, 54.0, 48.0, 36.0, 42.0, 42.0, 42.0, 42.0, 48.0, 42.0, 42.0, 48.0, 48.0, 36.0, 42.0, 42.0, 48.0, 48.0, 42.0, 48.0, 42.0, 48.0, 42.0, 48.0, 36.0, 42.0, 48.0, 42.0, 48.0, 48.0, 48.0, 42.0, 42.0, 48.0, 42.0, 42.0, 54.0, 42.0, 42.0, 42.0, 42.0, 42.0, 42.0, 42.0, 42.0, 48.0, 42.0, 42.0, 48.0, 42.0, 48.0, 42.0, 36.0, 42.0, 48.0, 42.0, 48.0, 42.0, 48.0, 42.0, 36.0, 42.0, 42.0, 48.0, 42.0, 48.0, 42.0, 48.0, 42.0, 42.0, 42.0, 48.0, 48.0, 42.0, 36.0, 42.0, 42.0, 42.0, 54.0, 60.0, 48.0, 42.0, 42.0, 42.0, 42.0, 42.0, 48.0, 48.0, 48.0, 42.0, 42.0, 42.0, 48.0, 48.0, 48.0, 48.0, 48.0, 42.0, 48.0, 42.0, 36.0, 42.0, 42.0, 42.0, 48.0, 36.0, 42.0, 42.0, 48.0, 42.0, 42.0, 42.0, 48.0, 42.0, 48.0, 42.0, 42.0, 42.0, 48.0, 42.0, 48.0, 42.0, 48.0, 48.0, 48.0, 42.0, 42.0, 42.0, 42.0, 48.0, 42.0, 42.0, 48.0, 42.0, 48.0, 42.0, 42.0, 48.0, 48.0, 48.0, 42.0, 48.0, 42.0, 48.0, 42.0, 42.0, 42.0, 42.0, 48.0, 48.0, 48.0, 48.0, 42.0, 48.0, 48.0, 54.0, 42.0, 36.0, 42.0, 42.0, 42.0, 48.0, 36.0, 42.0, 42.0, 48.0, 48.0, 36.0, 42.0, 42.0, 48.0, 42.0, 48.0, 42.0, 42.0, 48.0, 42.0, 48.0, 42.0, 48.0, 36.0, 48.0, 42.0, 42.0, 42.0, 42.0, 42.0, 48.0, 42.0, 54.0, 42.0, 42.0, 42.0, 48.0, 48.0, 54.0, 48.0, 42.0, 36.0, 42.0, 42.0, 42.0, 48.0, 48.0, 42.0, 48.0, 48.0, 42.0, 48.0, 42.0, 48.0, 48.0, 36.0, 48.0, 54.0, 42.0, 48.0, 42.0, 42.0, 48.0, 42.0, 48.0, 48.0, 48.0, 42.0, 48.0, 48.0, 48.0, 48.0, 48.0, 42.0, 48.0, 48.0, 48.0, 48.0, 54.0, 48.0, 48.0, 54.0, 48.0, 48.0, 48.0, 54.0, 42.0, 42.0, 42.0, 42.0, 48.0, 48.0, 48.0, 48.0, 48.0, 42.0, 48.0, 48.0, 48.0, 42.0, 48.0, 48.0, 48.0, 48.0, 54.0, 48.0, 48.0, 48.0, 54.0, 54.0, 42.0, 54.0, 48.0, 42.0, 42.0, 42.0, 48.0, 42.0, 48.0, 48.0, 48.0, 42.0, 54.0, 42.0, 42.0, 42.0, 42.0, 42.0, 42.0, 42.0, 48.0, 48.0, 48.0, 42.0, 48.0, 48.0, 42.0, 48.0, 48.0, 42.0, 48.0, 48.0, 42.0, 48.0, 48.0, 48.0, 48.0, 48.0, 42.0, 48.0, 48.0, 42.0, 42.0, 42.0, 48.0, 42.0, 48.0, 42.0, 48.0, 48.0, 48.0, 48.0, 42.0, 48.0, 48.0, 48.0, 42.0, 48.0, 48.0, 48.0, 48.0, 48.0, 54.0, 60.0, 48.0, 48.0, 48.0, 42.0, 48.0, 48.0, 48.0, 48.0, 48.0, 42.0, 48.0, 48.0, 42.0, 48.0, 48.0, 48.0, 48.0, 48.0, 54.0, 66.0, 60.0, 48.0, 36.0, 48.0, 42.0, 54.0, 54.0, 42.0, 42.0, 42.0, 48.0, 42.0, 48.0, 42.0, 48.0, 48.0, 42.0, 48.0, 48.0, 48.0, 42.0, 48.0, 48.0, 48.0, 42.0, 42.0, 42.0, 48.0, 36.0, 48.0, 48.0, 54.0, 42.0, 36.0, 42.0, 48.0, 42.0, 48.0, 48.0, 42.0, 48.0, 42.0, 42.0, 42.0, 42.0, 48.0, 42.0, 42.0, 48.0, 42.0, 48.0, 42.0, 48.0, 42.0, 36.0, 42.0, 48.0, 42.0, 48.0, 42.0, 42.0, 48.0, 48.0, 42.0, 48.0, 42.0, 48.0, 48.0, 42.0, 42.0, 42.0, 48.0, 42.0, 42.0, 42.0, 48.0, 48.0, 42.0, 48.0, 42.0, 42.0, 48.0, 42.0, 48.0, 42.0, 42.0, 48.0, 42.0, 42.0, 48.0, 36.0, 42.0, 42.0, 42.0, 42.0, 48.0, 42.0, 36.0, 42.0, 42.0, 48.0, 42.0, 48.0, 42.0, 48.0, 42.0, 42.0, 42.0, 48.0, 42.0, 48.0, 42.0, 48.0, 48.0, 48.0, 42.0, 54.0, 48.0, 36.0, 42.0, 36.0, 48.0, 36.0, 48.0, 42.0, 42.0, 42.0, 42.0, 48.0, 42.0, 42.0, 42.0, 42.0, 48.0, 42.0, 42.0, 42.0, 48.0, 42.0, 42.0, 42.0, 42.0, 42.0, 42.0, 48.0, 42.0, 42.0, 42.0, 42.0, 42.0, 42.0, 48.0, 48.0, 54.0, 60.0, 54.0, 42.0, 42.0, 48.0, 54.0, 48.0, 36.0, 42.0, 42.0, 42.0, 48.0, 42.0, 48.0, 48.0, 42.0, 42.0, 42.0, 48.0, 36.0, 42.0, 48.0, 42.0, 42.0, 48.0, 42.0, 42.0, 48.0, 42.0, 42.0, 48.0, 48.0, 42.0, 48.0, 42.0, 42.0, 48.0, 42.0, 48.0, 42.0, 42.0, 42.0, 48.0, 42.0, 42.0, 42.0, 48.0, 42.0, 42.0, 48.0, 42.0, 42.0, 48.0, 42.0, 36.0, 42.0, 42.0, 48.0, 42.0, 42.0, 42.0, 42.0, 48.0, 42.0, 42.0, 42.0, 42.0, 42.0, 48.0, 42.0, 48.0, 42.0, 48.0, 42.0, 42.0, 42.0, 42.0, 36.0, 42.0, 42.0, 48.0, 36.0, 42.0, 48.0, 42.0, 42.0, 42.0, 48.0, 42.0, 48.0, 42.0, 48.0, 42.0, 48.0, 42.0, 42.0, 48.0, 42.0, 42.0, 48.0, 48.0, 42.0, 42.0, 42.0, 48.0, 42.0, 48.0, 42.0, 42.0, 48.0, 42.0, 42.0, 42.0, 42.0, 48.0, 48.0, 42.0, 42.0, 36.0, 48.0, 42.0, 48.0, 48.0, 48.0, 42.0, 48.0, 42.0, 42.0, 42.0, 48.0, 42.0, 42.0, 42.0, 48.0, 42.0, 48.0, 42.0, 48.0, 42.0, 42.0, 42.0, 42.0, 42.0, 48.0, 42.0, 42.0, 48.0, 48.0, 48.0, 48.0, 42.0, 42.0, 42.0, 42.0, 42.0, 42.0, 48.0, 48.0, 42.0, 48.0, 42.0, 36.0, 42.0, 42.0, 42.0, 42.0, 48.0, 42.0, 48.0, 42.0, 42.0, 42.0, 42.0, 48.0, 42.0, 48.0, 42.0, 42.0, 48.0, 48.0, 42.0, 48.0, 36.0, 42.0, 36.0, 48.0, 42.0, 48.0, 42.0, 48.0, 42.0, 42.0, 42.0, 42.0, 42.0, 42.0, 42.0, 48.0, 42.0, 42.0, 48.0, 42.0, 36.0, 42.0, 42.0, 48.0, 42.0, 48.0, 42.0, 48.0, 48.0, 48.0, 42.0, 42.0, 42.0, 36.0, 48.0, 42.0, 42.0, 48.0, 42.0, 48.0, 42.0, 48.0, 42.0, 42.0, 42.0, 42.0, 42.0, 42.0, 48.0, 48.0, 42.0, 48.0, 42.0, 42.0, 48.0, 42.0, 42.0, 48.0, 42.0, 48.0, 42.0, 42.0, 42.0, 42.0, 42.0, 48.0, 42.0, 48.0, 42.0, 48.0, 48.0, 48.0, 48.0, 48.0, 48.0, 48.0, 54.0, 48.0, 54.0, 48.0, 48.0, 54.0, 48.0, 48.0, 54.0, 60.0, 48.0, 42.0, 42.0, 42.0, 48.0, 48.0, 48.0, 48.0, 48.0, 54.0, 48.0, 48.0, 42.0, 54.0, 48.0, 48.0, 48.0, 48.0, 48.0, 48.0, 54.0, 54.0, 54.0, 48.0, 42.0, 42.0, 48.0, 42.0, 48.0, 42.0, 48.0, 48.0, 42.0, 48.0, 48.0, 42.0, 48.0, 54.0, 42.0, 42.0, 54.0, 54.0, 54.0, 66.0, 54.0, 48.0, 42.0, 48.0, 42.0, 42.0, 48.0, 42.0, 48.0, 42.0, 48.0, 42.0, 42.0, 42.0, 48.0, 48.0, 54.0, 42.0, 48.0, 48.0, 48.0, 48.0, 54.0, 54.0, 60.0, 66.0, 60.0, 48.0, 42.0, 42.0, 42.0, 48.0, 48.0, 48.0, 42.0, 48.0, 48.0, 48.0, 48.0, 48.0, 36.0, 48.0, 42.0, 48.0, 48.0, 42.0, 48.0, 48.0, 48.0, 48.0, 42.0, 48.0, 42.0, 48.0, 42.0, 48.0, 48.0, 48.0, 54.0, 42.0, 36.0, 42.0, 48.0, 42.0, 48.0, 48.0, 48.0, 42.0, 42.0, 48.0, 48.0, 48.0, 42.0, 48.0, 48.0, 48.0, 48.0, 42.0, 48.0, 48.0, 48.0, 48.0, 42.0, 42.0, 48.0, 48.0, 48.0, 48.0, 48.0, 48.0, 48.0, 48.0, 48.0, 48.0, 48.0, 48.0, 48.0, 42.0, 48.0, 48.0, 48.0, 42.0, 48.0, 48.0, 42.0, 48.0, 48.0, 48.0, 48.0, 48.0, 48.0, 48.0, 48.0, 48.0, 48.0, 48.0, 48.0, 48.0, 48.0, 48.0, 54.0, 42.0, 48.0, 48.0, 42.0, 48.0, 48.0, 48.0, 48.0, 48.0, 54.0, 48.0, 48.0, 48.0, 48.0, 48.0, 48.0, 48.0, 48.0, 48.0, 48.0, 48.0, 48.0, 48.0, 48.0, 54.0, 48.0, 48.0, 48.0, 54.0, 48.0, 48.0, 48.0, 48.0, 54.0, 48.0, 48.0, 54.0, 48.0, 54.0, 48.0, 54.0, 60.0, 60.0, 48.0, 42.0, 48.0, 42.0, 48.0, 48.0, 48.0, 48.0, 42.0, 48.0, 48.0, 48.0, 48.0, 48.0, 48.0, 42.0, 48.0, 48.0, 48.0, 48.0, 42.0, 42.0, 48.0, 48.0, 48.0, 48.0, 42.0, 48.0, 42.0, 48.0, 48.0, 48.0, 42.0, 42.0, 36.0, 48.0, 42.0, 54.0, 60.0, 66.0, 54.0, 42.0, 42.0, 42.0, 42.0, 48.0, 42.0, 42.0, 48.0, 48.0, 42.0, 48.0, 48.0, 42.0, 48.0, 48.0, 48.0, 48.0, 48.0, 48.0, 48.0, 42.0, 42.0, 48.0, 48.0, 48.0, 48.0, 42.0, 48.0, 48.0, 48.0, 48.0, 48.0, 48.0, 54.0, 42.0, 42.0, 42.0, 48.0, 42.0, 48.0, 48.0, 42.0, 48.0, 48.0, 48.0, 48.0, 36.0, 36.0, 42.0, 42.0, 48.0, 48.0, 42.0, 42.0, 48.0, 48.0, 48.0, 42.0, 48.0, 36.0, 42.0, 42.0, 48.0, 48.0, 42.0, 48.0, 42.0, 48.0, 42.0, 42.0, 48.0, 48.0, 48.0, 42.0, 48.0, 42.0, 48.0, 48.0, 48.0, 48.0, 48.0, 42.0, 48.0, 48.0, 48.0, 48.0, 42.0, 48.0, 48.0, 48.0, 42.0, 48.0, 42.0, 48.0, 42.0, 48.0, 42.0, 48.0, 48.0, 42.0, 54.0, 54.0, 48.0, 48.0, 48.0, 48.0, 48.0, 48.0, 48.0, 48.0, 48.0, 48.0, 48.0, 48.0, 48.0, 42.0, 48.0, 42.0, 48.0, 48.0, 48.0, 42.0, 48.0, 48.0, 48.0, 42.0, 48.0, 48.0, 54.0, 42.0, 48.0, 48.0, 60.0, 54.0, 42.0, 42.0, 42.0, 42.0, 42.0, 42.0, 48.0, 54.0, 54.0, 42.0, 42.0, 42.0, 48.0, 42.0, 48.0, 48.0, 42.0, 42.0, 42.0, 48.0, 42.0, 48.0, 48.0, 48.0, 42.0, 54.0, 48.0, 42.0, 48.0, 48.0, 42.0, 48.0, 48.0, 48.0, 42.0, 48.0, 48.0, 48.0, 48.0, 42.0, 36.0, 42.0, 48.0, 42.0, 42.0, 42.0, 48.0, 48.0, 48.0, 42.0, 54.0, 54.0, 42.0, 42.0, 36.0, 42.0, 42.0, 42.0, 42.0, 42.0, 42.0, 48.0, 48.0, 42.0, 42.0, 42.0, 42.0, 48.0, 42.0, 48.0, 48.0, 48.0, 48.0, 36.0, 42.0, 48.0, 48.0, 48.0, 48.0, 36.0, 42.0, 42.0, 48.0, 42.0, 48.0, 48.0, 48.0, 42.0, 42.0, 48.0, 48.0, 48.0, 48.0, 48.0, 48.0, 42.0, 48.0, 36.0, 42.0, 42.0, 42.0, 48.0, 42.0, 48.0, 42.0, 42.0, 48.0, 48.0, 42.0, 42.0, 42.0, 48.0, 48.0, 42.0, 48.0, 42.0, 54.0, 54.0, 42.0, 48.0, 60.0, 60.0, 48.0, 42.0, 42.0, 42.0, 42.0, 42.0, 42.0, 48.0, 42.0, 42.0, 42.0, 48.0, 42.0, 48.0, 48.0, 42.0, 48.0, 42.0, 48.0, 42.0, 48.0, 42.0, 42.0, 42.0, 42.0, 42.0, 42.0, 42.0, 42.0, 42.0, 42.0, 48.0, 54.0, 66.0, 60.0, 48.0, 36.0, 48.0, 42.0, 42.0, 42.0, 48.0, 48.0, 48.0, 42.0, 48.0, 54.0, 42.0, 42.0, 48.0, 60.0, 54.0, 42.0, 48.0, 48.0, 54.0, 54.0, 42.0, 48.0, 42.0, 48.0, 48.0, 48.0, 48.0, 48.0, 48.0, 48.0, 48.0, 48.0, 48.0, 54.0, 66.0, 72.0, 78.0, 66.0, 60.0, 54.0, 48.0, 48.0, 48.0, 48.0, 54.0, 48.0, 54.0, 54.0, 54.0, 60.0, 60.0, 66.0, 60.0, 60.0, 60.0, 66.0, 60.0, 48.0, 60.0, 60.0, 66.0, 60.0, 54.0, 60.0, 72.0, 66.0, 60.0, 60.0, 54.0, 60.0, 54.0, 54.0, 42.0]
2024-11-20 22:16:05,193 - DEBUG - Regression result for segment: [59.50447895 59.50447895 59.50447895 ... 53.68012623 53.73152192
 53.78312135]
2024-11-20 22:16:05,194 - DEBUG - Processing BPM segment from 11173 to 13165: [54.0, 66.0, 78.0, 90.0, 102.0, 96.0, 102.0, 96.0, 108.0, 102.0, 90.0, 78.0, 90.0, 96.0, 108.0, 96.0, 90.0, 78.0, 90.0, 84.0, 96.0, 90.0, 96.0, 90.0, 90.0, 78.0, 90.0, 78.0, 90.0, 90.0, 84.0, 96.0, 84.0, 96.0, 102.0, 90.0, 78.0, 90.0, 102.0, 102.0, 102.0, 96.0, 108.0, 96.0, 96.0, 96.0, 102.0, 114.0, 102.0, 90.0, 84.0, 96.0, 96.0, 102.0, 96.0, 96.0, 96.0, 96.0, 96.0, 90.0, 96.0, 90.0, 90.0, 102.0, 102.0, 90.0, 102.0, 90.0, 96.0, 108.0, 96.0, 84.0, 90.0, 78.0, 78.0, 84.0, 90.0, 84.0, 96.0, 108.0, 96.0, 96.0, 102.0, 114.0, 102.0, 108.0, 114.0, 108.0, 120.0, 120.0, 120.0, 108.0, 96.0, 90.0, 90.0, 96.0, 96.0, 84.0, 96.0, 102.0, 108.0, 96.0, 84.0, 96.0, 84.0, 96.0, 96.0, 84.0, 96.0, 90.0, 78.0, 84.0, 72.0, 84.0, 84.0, 96.0, 84.0, 96.0, 90.0, 90.0, 96.0, 96.0, 90.0, 84.0, 96.0, 102.0, 102.0, 108.0, 96.0, 102.0, 114.0, 108.0, 102.0, 102.0, 114.0, 102.0, 102.0, 114.0, 102.0, 90.0, 78.0, 90.0, 102.0, 90.0, 90.0, 102.0, 102.0, 90.0, 84.0, 90.0, 78.0, 84.0, 84.0, 90.0, 96.0, 84.0, 72.0, 84.0, 96.0, 102.0, 90.0, 102.0, 102.0, 96.0, 102.0, 90.0, 96.0, 108.0, 96.0, 84.0, 90.0, 96.0, 108.0, 102.0, 114.0, 102.0, 102.0, 114.0, 102.0, 96.0, 108.0, 108.0, 96.0, 96.0, 90.0, 90.0, 96.0, 96.0, 96.0, 84.0, 96.0, 84.0, 72.0, 84.0, 90.0, 96.0, 84.0, 96.0, 96.0, 84.0, 96.0, 84.0, 72.0, 66.0, 78.0, 66.0, 78.0, 90.0, 78.0, 90.0, 96.0, 90.0, 90.0, 96.0, 96.0, 96.0, 96.0, 96.0, 108.0, 114.0, 102.0, 90.0, 96.0, 102.0, 90.0, 78.0, 90.0, 90.0, 78.0, 90.0, 96.0, 96.0, 84.0, 96.0, 90.0, 96.0, 96.0, 108.0, 96.0, 90.0, 96.0, 96.0, 84.0, 96.0, 108.0, 108.0, 120.0, 108.0, 108.0, 96.0, 102.0, 90.0, 102.0, 96.0, 90.0, 90.0, 96.0, 90.0, 102.0, 90.0, 78.0, 90.0, 90.0, 90.0, 84.0, 84.0, 90.0, 90.0, 102.0, 90.0, 96.0, 90.0, 102.0, 114.0, 102.0, 90.0, 102.0, 114.0, 102.0, 102.0, 102.0, 90.0, 102.0, 102.0, 90.0, 96.0, 84.0, 96.0, 90.0, 78.0, 90.0, 90.0, 84.0, 84.0, 96.0, 96.0, 108.0, 96.0, 84.0, 96.0, 102.0, 96.0, 102.0, 90.0, 78.0, 90.0, 102.0, 90.0, 84.0, 90.0, 90.0, 102.0, 102.0, 90.0, 102.0, 108.0, 108.0, 96.0, 108.0, 96.0, 90.0, 102.0, 90.0, 78.0, 72.0, 84.0, 90.0, 96.0, 96.0, 90.0, 90.0, 96.0, 90.0, 90.0, 84.0, 72.0, 84.0, 96.0, 84.0, 90.0, 84.0, 96.0, 102.0, 102.0, 96.0, 108.0, 96.0, 96.0, 108.0, 96.0, 102.0, 102.0, 108.0, 108.0, 96.0, 96.0, 108.0, 96.0, 102.0, 96.0, 102.0, 90.0, 78.0, 78.0, 90.0, 102.0, 90.0, 96.0, 84.0, 78.0, 90.0, 78.0, 90.0, 84.0, 84.0, 90.0, 78.0, 66.0, 78.0, 66.0, 78.0, 90.0, 102.0, 90.0, 102.0, 90.0, 102.0, 102.0, 96.0, 102.0, 108.0, 102.0, 108.0, 114.0, 102.0, 102.0, 90.0, 84.0, 72.0, 84.0, 90.0, 90.0, 96.0, 84.0, 90.0, 84.0, 72.0, 84.0, 72.0, 84.0, 84.0, 96.0, 96.0, 84.0, 78.0, 84.0, 72.0, 72.0, 84.0, 72.0, 84.0, 96.0, 96.0, 90.0, 102.0, 96.0, 108.0, 108.0, 108.0, 102.0, 96.0, 108.0, 96.0, 102.0, 102.0, 96.0, 102.0, 90.0, 78.0, 90.0, 78.0, 90.0, 102.0, 102.0, 102.0, 90.0, 84.0, 72.0, 84.0, 72.0, 84.0, 72.0, 84.0, 90.0, 102.0, 90.0, 90.0, 102.0, 96.0, 108.0, 108.0, 114.0, 108.0, 114.0, 102.0, 90.0, 96.0, 84.0, 96.0, 108.0, 108.0, 96.0, 96.0, 96.0, 108.0, 96.0, 84.0, 84.0, 96.0, 84.0, 84.0, 90.0, 84.0, 96.0, 96.0, 108.0, 108.0, 102.0, 90.0, 90.0, 96.0, 90.0, 90.0, 96.0, 108.0, 96.0, 102.0, 90.0, 84.0, 96.0, 96.0, 96.0, 102.0, 102.0, 114.0, 102.0, 90.0, 90.0, 96.0, 96.0, 84.0, 84.0, 96.0, 96.0, 96.0, 90.0, 96.0, 84.0, 78.0, 90.0, 90.0, 90.0, 84.0, 72.0, 84.0, 96.0, 108.0, 96.0, 96.0, 90.0, 102.0, 90.0, 102.0, 96.0, 96.0, 96.0, 108.0, 96.0, 108.0, 114.0, 102.0, 90.0, 102.0, 90.0, 90.0, 96.0, 96.0, 84.0, 84.0, 96.0, 96.0, 90.0, 96.0, 84.0, 72.0, 84.0, 90.0, 84.0, 90.0, 78.0, 84.0, 90.0, 96.0, 102.0, 90.0, 84.0, 96.0, 108.0, 96.0, 108.0, 102.0, 102.0, 108.0, 96.0, 102.0, 114.0, 102.0, 90.0, 96.0, 84.0, 96.0, 108.0, 96.0, 102.0, 90.0, 90.0, 90.0, 90.0, 102.0, 90.0, 78.0, 90.0, 78.0, 78.0, 90.0, 90.0, 102.0, 90.0, 102.0, 96.0, 90.0, 102.0, 102.0, 90.0, 102.0, 96.0, 90.0, 102.0, 96.0, 102.0, 96.0, 96.0, 84.0, 84.0, 84.0, 96.0, 90.0, 84.0, 78.0, 66.0, 78.0, 84.0, 96.0, 84.0, 96.0, 84.0, 96.0, 84.0, 96.0, 84.0, 90.0, 90.0, 78.0, 66.0, 78.0, 90.0, 102.0, 108.0, 108.0, 102.0, 102.0, 96.0, 90.0, 102.0, 108.0, 96.0, 102.0, 102.0, 102.0, 96.0, 96.0, 96.0, 84.0, 90.0, 96.0, 84.0, 96.0, 84.0, 96.0, 84.0, 90.0, 102.0, 90.0, 96.0, 84.0, 84.0, 78.0, 90.0, 84.0, 72.0, 84.0, 96.0, 90.0, 102.0, 108.0, 96.0, 96.0, 96.0, 96.0, 96.0, 108.0, 96.0, 102.0, 96.0, 90.0, 102.0, 102.0, 90.0, 90.0, 102.0, 114.0, 102.0, 90.0, 96.0, 96.0, 84.0, 84.0, 84.0, 84.0, 90.0, 102.0, 90.0, 84.0, 96.0, 102.0, 90.0, 102.0, 90.0, 96.0, 102.0, 108.0, 96.0, 108.0, 102.0, 108.0, 96.0, 102.0, 114.0, 114.0, 102.0, 108.0, 96.0, 90.0, 84.0, 72.0, 84.0, 90.0, 90.0, 102.0, 108.0, 96.0, 84.0, 90.0, 96.0, 84.0, 78.0, 72.0, 84.0, 96.0, 90.0, 96.0, 84.0, 96.0, 108.0, 96.0, 84.0, 84.0, 96.0, 102.0, 114.0, 102.0, 108.0, 108.0, 102.0, 90.0, 96.0, 96.0, 102.0, 96.0, 96.0, 84.0, 96.0, 84.0, 96.0, 84.0, 96.0, 84.0, 72.0, 84.0, 72.0, 84.0, 96.0, 108.0, 96.0, 96.0, 90.0, 90.0, 84.0, 96.0, 102.0, 102.0, 102.0, 96.0, 96.0, 84.0, 96.0, 90.0, 102.0, 102.0, 96.0, 102.0, 90.0, 90.0, 102.0, 102.0, 96.0, 96.0, 102.0, 90.0, 78.0, 78.0, 66.0, 54.0, 42.0, 54.0, 48.0, 60.0, 48.0, 60.0, 72.0, 84.0, 96.0, 90.0, 102.0, 96.0, 102.0, 90.0, 96.0, 96.0, 84.0, 96.0, 102.0, 96.0, 108.0, 102.0, 96.0, 102.0, 96.0, 102.0, 102.0, 96.0, 108.0, 96.0, 84.0, 96.0, 90.0, 78.0, 84.0, 96.0, 84.0, 96.0, 84.0, 78.0, 66.0, 78.0, 90.0, 102.0, 102.0, 102.0, 96.0, 102.0, 96.0, 108.0, 102.0, 108.0, 96.0, 108.0, 114.0, 102.0, 108.0, 114.0, 102.0, 90.0, 102.0, 102.0, 96.0, 102.0, 96.0, 90.0, 90.0, 90.0, 90.0, 84.0, 90.0, 90.0, 78.0, 90.0, 90.0, 102.0, 90.0, 90.0, 84.0, 84.0, 96.0, 108.0, 102.0, 102.0, 96.0, 96.0, 90.0, 90.0, 102.0, 96.0, 108.0, 96.0, 96.0, 108.0, 96.0, 96.0, 90.0, 96.0, 96.0, 84.0, 90.0, 84.0, 72.0, 84.0, 96.0, 96.0, 90.0, 84.0, 96.0, 96.0, 102.0, 90.0, 96.0, 108.0, 96.0, 84.0, 96.0, 108.0, 108.0, 96.0, 96.0, 102.0, 96.0, 96.0, 108.0, 96.0, 102.0, 96.0, 84.0, 90.0, 102.0, 102.0, 96.0, 84.0, 96.0, 84.0, 84.0, 90.0, 78.0, 84.0, 90.0, 102.0, 90.0, 84.0, 90.0, 78.0, 84.0, 90.0, 102.0, 102.0, 102.0, 90.0, 84.0, 96.0, 108.0, 96.0, 102.0, 102.0, 96.0, 102.0, 102.0, 114.0, 108.0, 102.0, 96.0, 102.0, 90.0, 78.0, 84.0, 84.0, 90.0, 78.0, 90.0, 78.0, 90.0, 102.0, 96.0, 84.0, 72.0, 84.0, 72.0, 84.0, 78.0, 66.0, 78.0, 84.0, 96.0, 90.0, 90.0, 102.0, 102.0, 90.0, 96.0, 96.0, 108.0, 108.0, 96.0, 108.0, 120.0, 108.0, 108.0, 96.0, 90.0, 84.0, 96.0, 102.0, 90.0, 78.0, 84.0, 78.0, 90.0, 78.0, 90.0, 84.0, 84.0, 90.0, 78.0, 90.0, 102.0, 96.0, 90.0, 84.0, 96.0, 108.0, 102.0, 102.0, 102.0, 90.0, 102.0, 90.0, 102.0, 102.0, 96.0, 96.0, 96.0, 90.0, 96.0, 84.0, 90.0, 90.0, 78.0, 66.0, 78.0, 66.0, 78.0, 78.0, 66.0, 54.0, 66.0, 78.0, 84.0, 96.0, 102.0, 90.0, 102.0, 102.0, 108.0, 96.0, 108.0, 108.0, 108.0, 102.0, 114.0, 102.0, 90.0, 102.0, 102.0, 96.0, 96.0, 108.0, 96.0, 96.0, 90.0, 78.0, 90.0, 102.0, 90.0, 96.0, 84.0, 72.0, 84.0, 72.0, 84.0, 78.0, 84.0, 96.0, 90.0, 102.0, 90.0, 96.0, 84.0, 96.0, 102.0, 102.0, 102.0, 90.0, 90.0, 102.0, 90.0, 102.0, 108.0, 108.0, 102.0, 96.0, 102.0, 108.0, 96.0, 90.0, 96.0, 102.0, 102.0, 90.0, 90.0, 90.0, 96.0, 84.0, 72.0, 60.0, 72.0, 84.0, 84.0, 96.0, 84.0, 96.0, 102.0, 96.0, 96.0, 108.0, 102.0, 90.0, 102.0, 114.0, 102.0, 114.0, 108.0, 102.0, 96.0, 102.0, 90.0, 96.0, 108.0, 96.0, 90.0, 78.0, 90.0, 78.0, 90.0, 96.0, 108.0, 96.0, 90.0, 90.0, 84.0, 78.0, 66.0, 78.0, 90.0, 102.0, 96.0, 84.0, 90.0, 102.0, 90.0, 96.0, 96.0, 90.0, 90.0, 102.0, 102.0, 96.0, 96.0, 102.0, 96.0, 102.0, 114.0, 102.0, 102.0, 90.0, 90.0, 102.0, 96.0, 102.0, 90.0, 78.0, 90.0, 90.0, 90.0, 90.0, 84.0, 96.0, 90.0, 102.0, 90.0, 96.0, 90.0, 102.0, 102.0, 102.0, 96.0, 108.0, 120.0, 108.0, 96.0, 96.0, 102.0, 90.0, 96.0, 96.0, 90.0, 84.0, 90.0, 78.0, 90.0, 78.0, 90.0, 96.0, 84.0, 96.0, 84.0, 96.0, 108.0, 96.0, 90.0, 90.0, 84.0, 90.0, 78.0, 84.0, 96.0, 90.0, 102.0, 108.0, 102.0, 108.0, 102.0, 108.0, 96.0, 102.0, 102.0, 102.0, 90.0, 84.0, 90.0, 90.0, 102.0, 96.0, 84.0, 72.0, 84.0, 90.0, 78.0, 90.0, 84.0, 90.0, 78.0, 90.0, 102.0, 96.0, 96.0, 96.0, 96.0, 102.0, 96.0, 96.0, 90.0, 102.0, 108.0, 96.0, 108.0, 108.0, 114.0, 114.0, 102.0, 108.0, 120.0, 108.0, 96.0, 96.0, 96.0, 108.0, 96.0, 96.0, 96.0, 90.0, 102.0, 90.0, 90.0, 102.0, 90.0, 96.0, 84.0, 90.0, 84.0, 90.0, 78.0, 90.0, 96.0, 102.0, 108.0, 108.0, 102.0, 102.0, 108.0, 102.0, 108.0, 108.0, 102.0, 90.0, 102.0, 114.0, 102.0, 108.0, 96.0, 108.0, 96.0, 90.0, 78.0, 84.0, 96.0, 84.0, 90.0, 78.0, 84.0, 72.0, 84.0, 96.0, 96.0, 90.0, 96.0, 102.0, 108.0, 108.0, 96.0, 84.0, 96.0, 96.0, 108.0, 114.0, 102.0, 90.0, 102.0, 96.0, 108.0, 102.0, 96.0, 96.0, 84.0, 96.0, 108.0, 96.0, 84.0, 72.0, 66.0, 78.0, 90.0, 78.0, 90.0, 102.0, 90.0, 102.0, 90.0, 102.0, 90.0, 90.0, 102.0, 90.0, 90.0, 78.0, 90.0, 90.0, 102.0, 90.0, 96.0, 96.0, 96.0, 90.0, 102.0, 96.0, 96.0, 96.0, 96.0, 90.0, 96.0, 102.0, 90.0, 90.0, 90.0, 90.0, 78.0, 84.0, 72.0, 84.0, 96.0, 108.0, 96.0, 84.0, 96.0, 96.0, 84.0, 90.0, 96.0, 96.0, 84.0, 90.0, 90.0, 96.0, 102.0, 90.0, 96.0, 90.0, 102.0, 108.0, 96.0, 90.0, 90.0, 102.0, 114.0, 102.0, 90.0, 90.0, 90.0, 90.0, 96.0, 84.0, 84.0, 90.0, 84.0, 72.0, 72.0, 60.0, 72.0, 72.0, 78.0, 90.0, 84.0, 90.0, 96.0, 90.0, 96.0, 108.0, 120.0, 114.0, 108.0, 96.0, 96.0, 108.0, 114.0, 108.0, 96.0, 96.0, 96.0, 84.0, 96.0, 84.0, 96.0, 108.0, 96.0, 96.0, 96.0, 90.0, 96.0, 84.0, 90.0, 84.0, 72.0, 60.0, 72.0, 60.0, 72.0, 84.0, 96.0, 96.0, 102.0, 114.0, 108.0, 114.0, 102.0, 102.0, 96.0, 96.0, 108.0, 102.0, 102.0, 102.0, 96.0, 96.0, 84.0, 90.0, 78.0, 90.0, 78.0, 90.0, 96.0, 96.0, 90.0, 84.0, 78.0, 78.0, 84.0, 90.0, 90.0, 102.0, 90.0, 78.0, 90.0, 96.0, 96.0, 90.0, 90.0, 78.0, 78.0, 90.0, 102.0, 90.0, 102.0, 108.0, 114.0, 102.0, 114.0, 102.0, 102.0, 102.0, 108.0, 96.0, 96.0, 102.0, 96.0, 84.0, 96.0, 90.0, 78.0, 90.0, 102.0, 90.0, 96.0, 84.0, 84.0, 96.0, 90.0, 102.0, 90.0, 102.0, 102.0, 108.0, 114.0, 102.0, 96.0, 108.0, 96.0, 96.0, 102.0, 102.0, 102.0, 102.0, 114.0, 102.0, 90.0, 96.0, 90.0, 96.0, 102.0, 102.0, 96.0, 90.0, 90.0, 96.0, 96.0, 84.0, 96.0, 84.0, 96.0, 96.0, 84.0, 78.0, 90.0, 96.0, 96.0, 102.0, 90.0, 90.0, 102.0, 108.0, 96.0, 108.0, 102.0, 96.0, 108.0, 114.0, 108.0, 102.0, 90.0, 90.0, 90.0, 102.0, 90.0, 78.0, 84.0, 78.0, 90.0, 96.0, 102.0, 90.0, 78.0, 90.0, 90.0, 102.0, 90.0, 90.0, 102.0, 102.0, 108.0, 96.0, 84.0, 90.0, 96.0, 102.0, 90.0, 102.0, 96.0, 96.0, 96.0, 102.0, 102.0, 90.0, 96.0, 96.0, 96.0, 90.0, 96.0, 96.0, 84.0, 72.0, 84.0, 84.0, 90.0, 90.0, 78.0, 90.0, 102.0, 102.0, 90.0, 78.0, 90.0, 96.0, 102.0, 96.0, 96.0, 90.0, 96.0, 108.0, 108.0, 114.0, 102.0, 108.0, 102.0, 114.0, 102.0, 108.0, 102.0, 108.0, 102.0, 102.0, 90.0, 90.0, 102.0, 90.0, 96.0, 96.0, 84.0, 84.0, 90.0, 78.0, 90.0, 96.0, 84.0, 96.0, 108.0, 96.0, 84.0, 84.0, 96.0, 96.0, 108.0, 102.0, 102.0, 102.0, 108.0, 120.0, 126.0, 114.0, 102.0, 102.0, 96.0, 90.0, 96.0, 108.0, 102.0, 90.0, 102.0, 108.0, 96.0, 84.0, 90.0, 90.0, 90.0, 78.0, 90.0, 78.0, 90.0, 96.0, 90.0, 96.0, 84.0, 96.0, 84.0, 96.0, 96.0, 96.0, 108.0, 96.0, 102.0, 108.0, 120.0, 114.0, 102.0, 102.0, 96.0, 102.0, 102.0, 90.0, 84.0, 96.0, 96.0, 90.0, 90.0, 96.0, 96.0, 84.0, 96.0, 102.0, 90.0, 78.0, 90.0, 90.0, 102.0, 90.0, 96.0, 108.0, 96.0, 102.0, 90.0, 90.0, 102.0, 90.0, 102.0, 90.0, 96.0, 90.0, 102.0, 108.0, 96.0, 102.0, 102.0, 96.0, 90.0, 78.0, 90.0, 102.0, 102.0, 90.0, 96.0, 90.0, 96.0, 90.0, 90.0, 78.0, 66.0, 78.0, 90.0, 78.0, 90.0, 96.0, 84.0, 72.0, 84.0, 90.0, 102.0, 102.0, 108.0, 96.0, 108.0, 114.0, 102.0, 114.0, 102.0, 96.0, 102.0, 108.0, 96.0, 96.0, 102.0, 108.0, 96.0, 102.0, 90.0, 90.0, 90.0, 102.0, 90.0, 90.0, 96.0, 108.0, 96.0, 96.0, 90.0, 78.0, 90.0, 78.0, 90.0, 96.0, 84.0, 90.0, 78.0, 90.0, 90.0, 78.0, 90.0, 102.0, 90.0, 90.0, 102.0, 90.0, 96.0, 102.0, 90.0, 96.0, 96.0, 96.0, 102.0, 96.0, 102.0, 114.0, 102.0, 102.0, 90.0, 96.0, 90.0, 78.0, 90.0, 90.0, 96.0, 90.0, 90.0, 78.0, 90.0, 90.0, 96.0, 84.0, 72.0, 84.0, 84.0, 96.0, 84.0, 84.0, 96.0, 96.0, 90.0, 96.0, 96.0, 84.0, 96.0, 90.0, 102.0, 102.0, 96.0, 108.0, 96.0, 96.0, 102.0, 96.0, 108.0, 120.0, 108.0, 96.0, 90.0, 102.0, 102.0, 90.0, 96.0, 90.0, 78.0, 90.0, 96.0, 90.0, 102.0, 102.0, 96.0, 90.0, 90.0, 96.0, 96.0, 96.0, 84.0, 90.0, 96.0, 96.0, 96.0, 84.0, 78.0, 90.0, 102.0, 90.0, 102.0, 96.0, 108.0, 96.0, 90.0, 96.0, 108.0, 96.0, 96.0, 102.0, 108.0, 96.0, 90.0, 84.0, 96.0, 84.0, 96.0, 84.0, 96.0, 84.0, 72.0, 84.0, 72.0, 84.0, 72.0, 84.0, 96.0, 84.0, 72.0, 84.0, 84.0, 72.0, 78.0, 90.0, 102.0, 90.0, 90.0, 90.0, 78.0, 90.0, 102.0, 90.0, 96.0, 108.0, 108.0, 102.0, 108.0, 114.0, 102.0, 114.0, 102.0, 96.0, 90.0, 96.0, 84.0, 96.0, 96.0, 84.0, 96.0, 90.0, 96.0, 90.0, 90.0, 84.0, 78.0, 78.0, 84.0, 72.0, 60.0, 72.0, 66.0, 54.0, 66.0, 78.0, 90.0, 96.0, 96.0]
2024-11-20 22:16:07,506 - DEBUG - Regression result for segment: [93.4638178  93.4638178  93.4638178  ... 78.64739648 77.86027835
 77.04015021]
2024-11-20 22:16:07,506 - DEBUG - Processing final BPM segment from 13165 to end: [96.0]
